-24.4101 -24.4101 -24.4101 -26.8511 -26.8511 -21.9691 -14.6461 -11.3914 -11.3914 -14.6461 -14.6461 -14.6461 -14.6461 -14.6461 -14.6461 -14.6461 -8.95037 -4.06835 -1.62734 -1.62734 -4.06835 -4.06835 -1.62734 -4.06835 -8.95037 -11.3914 -8.95037 -6.50936 -6.50936 -8.95037 -14.6461 -14.6461 -14.6461 -14.6461 -8.95037 -4.06835 -1.62734 -1.62734 -1.62734 -4.06835 -8.95037 -14.6461 -17.0871 -19.5281 -21.9691 -26.8511 -29.2921 -31.7331 -34.1741 -39.0562 -43.9382 -46.3792 -46.3792 -53.7022 -56.1432 -56.1432 -48.8202 -46.3792 -46.3792 -48.8202 -51.2612 -56.1432 -61.0252 -63.4663 -61.0252 -56.1432 -48.8202 -43.9382 -43.9382 -46.3792 -46.3792 -48.8202 -48.8202 -51.2612 -48.8202 -43.9382 -41.4972 -41.4972 -41.4972 -43.9382 -48.8202 -51.2612 -51.2612 -51.2612 -51.2612 -48.8202 -48.8202 -46.3792 -43.9382 -36.6152 -26.8511 -19.5281 -8.95037 8.1367 34.9878 66.7209 103.336 154.597 218.064 288.853 364.524 445.077 523.19 596.42 659.886 713.589 750.204 764.85 755.086 716.03 650.122 559.805 459.724 349.878 235.151 135.069 52.0749 -8.95037 -58.5842 -92.7584 -107.404 -114.727 -114.727 -107.404 -97.6404 -85.4353 -75.6713 -68.3483 -63.4663 -63.4663 -63.4663 -65.9073 -63.4663 -61.0252 -61.0252 -56.1432 -51.2612 -51.2612 -53.7022 -53.7022 -53.7022 -51.2612 -48.8202 -46.3792 -43.9382 -43.9382 -41.4972 -39.0562 -41.4972 -46.3792 -43.9382 -43.9382 -43.9382 -43.9382 -43.9382 -43.9382 -43.9382 -43.9382 -48.8202 -53.7022 -53.7022 -56.1432 -56.1432 -53.7022 -46.3792 -43.9382 -43.9382 -41.4972 -41.4972 -46.3792 -53.7022 -56.1432 -56.1432 -56.1432 -58.5842 -58.5842 -53.7022 -48.8202 -48.8202 -48.8202 -48.8202 -48.8202 -43.9382 -41.4972 -39.0562 -36.6152 -34.1741 -31.7331 -36.6152 -41.4972 -46.3792 -51.2612 -53.7022 -53.7022 -51.2612 -41.4972 -29.2921 -24.4101 -21.9691 -21.9691 -17.0871 -17.0871 -21.9691 -19.5281 -14.6461 -11.3914 -11.3914 -11.3914 -11.3914 -14.6461 -14.6461 -14.6461 -11.3914 -4.06835 5.69569 13.0187 17.9007 22.7828 22.7828 22.7828 22.7828 17.9007 17.9007 20.3417 25.2238 30.1058 30.1058 32.5468 32.5468 32.5468 34.9878 32.5468 32.5468 34.9878 42.3108 49.6339 56.9569 64.2799 64.2799 64.2799 59.3979 49.6339 44.7519 34.9878 32.5468 32.5468 32.5468 32.5468 25.2238 20.3417 15.4597 8.1367 3.25468 -1.62734 3.25468 5.69569 5.69569 8.1367 5.69569 3.25468 -4.06835 -11.3914 -14.6461 -14.6461 -14.6461 -14.6461 -14.6461 -8.95037 -8.95037 -11.3914 -14.6461 -21.9691 -24.4101 -29.2921 -29.2921 -31.7331 -29.2921 -24.4101 -21.9691 -21.9691 -21.9691 -21.9691 -21.9691 -26.8511 -29.2921 -26.8511 -21.9691 -21.9691 -24.4101 -24.4101 -29.2921 -36.6152 -41.4972 -46.3792 -43.9382 -41.4972 -36.6152 -29.2921 -26.8511 -24.4101 -29.2921 -34.1741 -36.6152 -39.0562 -39.0562 -39.0562 -36.6152 -29.2921 -29.2921 -29.2921 -36.6152 -39.0562 -43.9382 -51.2612 -51.2612 -48.8202 -46.3792 -41.4972 -36.6152 -34.1741 -39.0562 -43.9382 -48.8202 -48.8202 -48.8202 -51.2612 -46.3792 -43.9382 -39.0562 -39.0562 -41.4972 -43.9382 -43.9382 -43.9382 -43.9382 -43.9382 -41.4972 -34.1741 -31.7331 -31.7331 -31.7331 -31.7331 -31.7331 -34.1741 -31.7331 -24.4101 -19.5281 -17.0871 -17.0871 -14.6461 -17.0871 -19.5281 -24.4101 -24.4101 -17.0871 -14.6461 -8.95037 -4.06835 0.81367 0.81367 -6.50936 -14.6461 -14.6461 -19.5281 -14.6461 -14.6461 -8.95037 -1.62734 8.1367 13.0187 13.0187 5.69569 0.81367 -1.62734 -4.06835 -6.50936 -6.50936 0.81367 8.1367 13.0187 15.4597 15.4597 17.9007 15.4597 15.4597 15.4597 17.9007 22.7828 25.2238 27.6648 25.2238 22.7828 22.7828 22.7828 27.6648 27.6648 30.1058 32.5468 27.6648 27.6648 20.3417 15.4597 10.5777 8.1367 5.69569 5.69569 8.1367 10.5777 13.0187 15.4597 15.4597 13.0187 5.69569 0.81367 0.81367 -4.06835 -6.50936 -6.50936 -6.50936 -6.50936 -14.6461 -24.4101 -26.8511 -29.2921 -29.2921 -31.7331 -31.7331 -31.7331 -31.7331 -31.7331 -39.0562 -43.9382 -43.9382 -43.9382 -43.9382 -43.9382 -39.0562 -36.6152 -36.6152 -36.6152 -39.0562 -39.0562 -41.4972 -43.9382 -46.3792 -43.9382 -41.4972 -41.4972 -41.4972 -41.4972 -39.0562 -36.6152 -39.0562 -39.0562 -36.6152 -31.7331 -31.7331 -31.7331 -34.1741 -34.1741 -36.6152 -36.6152 -36.6152 -31.7331 -19.5281 0.81367 30.1058 66.7209 110.659 161.92 215.623 281.53 354.76 427.99 506.103 581.774 655.004 716.03 757.527 779.496 772.173 737.999 679.414 589.097 486.575 376.729 266.884 169.243 81.367 17.9007 -29.2921 -65.9073 -90.3174 -102.522 -104.963 -104.963 -102.522 -92.7584 -82.9943 -75.6713 -73.2303 -73.2303 -73.2303 -70.7893 -65.9073 -63.4663 -56.1432 -48.8202 -43.9382 -36.6152 -29.2921 -29.2921 -31.7331 -34.1741 -34.1741 -34.1741 -39.0562 -48.8202 -48.8202 -46.3792 -46.3792 -46.3792 -43.9382 -39.0562 -31.7331 -26.8511 -24.4101 -24.4101 -24.4101 -29.2921 -34.1741 -41.4972 -46.3792 -51.2612 -56.1432 -56.1432 -48.8202 -43.9382 -41.4972 -36.6152 -31.7331 -26.8511 -31.7331 -36.6152 -39.0562 -36.6152 -36.6152 -36.6152 -36.6152 -36.6152 -34.1741 -36.6152 -39.0562 -41.4972 -41.4972 -39.0562 -39.0562 -34.1741 -29.2921 -24.4101 -21.9691 -21.9691 -17.0871 -14.6461 -14.6461 -19.5281 -21.9691 -21.9691 -21.9691 -26.8511 -29.2921 -29.2921 -21.9691 -14.6461 -4.06835 3.25468 15.4597 22.7828 25.2238 22.7828 13.0187 5.69569 -1.62734 -6.50936 -4.06835 0.81367 5.69569 10.5777 15.4597 25.2238 27.6648 25.2238 22.7828 22.7828 30.1058 30.1058 30.1058 37.4288 42.3108 47.1929 47.1929 39.8698 34.9878 32.5468 30.1058 27.6648 34.9878 42.3108 52.0749 59.3979 64.2799 61.8389 54.5159 44.7519 39.8698 34.9878 34.9878 34.9878 37.4288 42.3108 44.7519 39.8698 34.9878 27.6648 22.7828 20.3417 15.4597 13.0187 10.5777 10.5777 15.4597 15.4597 15.4597 15.4597 8.1367 5.69569 0.81367 -4.06835 -6.50936 -6.50936 -4.06835 -6.50936 -6.50936 -11.3914 -14.6461 -17.0871 -17.0871 -17.0871 -21.9691 -26.8511 -24.4101 -24.4101 -26.8511 -29.2921 -29.2921 -26.8511 -21.9691 -14.6461 -11.3914 -14.6461 -19.5281 -29.2921 -34.1741 -43.9382 -53.7022 -58.5842 -58.5842 -51.2612 -41.4972 -34.1741 -31.7331 -34.1741 -39.0562 -43.9382 -48.8202 -53.7022 -58.5842 -58.5842 -48.8202 -39.0562 -31.7331 -26.8511 -26.8511 -29.2921 -29.2921 -39.0562 -51.2612 -58.5842 -51.2612 -43.9382 -46.3792 -53.7022 -56.1432 -56.1432 -53.7022 -53.7022 -56.1432 -48.8202 -39.0562 -31.7331 -34.1741 -43.9382 -48.8202 -51.2612 -53.7022 -53.7022 -56.1432 -53.7022 -43.9382 -34.1741 -29.2921 -21.9691 -17.0871 -17.0871 -26.8511 -39.0562 -41.4972 -39.0562 -31.7331 -31.7331 -26.8511 -19.5281 -21.9691 -34.1741 -46.3792 -53.7022 -48.8202 -36.6152 -29.2921 -21.9691 -19.5281 -17.0871 -19.5281 -29.2921 -36.6152 -36.6152 -34.1741 -31.7331 -31.7331 -31.7331 -29.2921 -29.2921 -34.1741 -34.1741 -34.1741 -26.8511 -17.0871 -8.95037 0.81367 8.1367 10.5777 10.5777 5.69569 -1.62734 -11.3914 -17.0871 -21.9691 -19.5281 -14.6461 -11.3914 -6.50936 -4.06835 -4.06835 -1.62734 5.69569 10.5777 13.0187 22.7828 32.5468 37.4288 27.6648 10.5777 0.81367 -11.3914 -24.4101 -29.2921 -26.8511 -14.6461 -6.50936 -1.62734 3.25468 5.69569 5.69569 0.81367 -8.95037 -14.6461 -19.5281 -24.4101 -26.8511 -29.2921 -31.7331 -34.1741 -34.1741 -39.0562 -43.9382 -48.8202 -48.8202 -46.3792 -41.4972 -41.4972 -39.0562 -39.0562 -41.4972 -41.4972 -41.4972 -41.4972 -39.0562 -34.1741 -19.5281 -14.6461 -11.3914 -8.95037 -14.6461 -21.9691 -36.6152 -53.7022 -58.5842 -58.5842 -56.1432 -43.9382 -26.8511 -14.6461 -21.9691 -39.0562 -46.3792 -51.2612 -63.4663 -75.6713 -75.6713 -58.5842 -41.4972 -41.4972 -46.3792 -43.9382 -34.1741 -26.8511 -17.0871 -1.62734 27.6648 61.8389 98.4541 142.392 196.094 259.561 327.909 401.139 479.252 550.041 620.83 676.973 718.471 737.999 733.117 696.502 628.153 532.954 430.431 323.027 213.182 117.982 47.1929 -4.06835 -41.4972 -75.6713 -92.7584 -95.1994 -95.1994 -92.7584 -87.8764 -80.5533 -68.3483 -65.9073 -73.2303 -80.5533 -87.8764 -87.8764 -87.8764 -90.3174 -80.5533 -63.4663 -51.2612 -43.9382 -41.4972 -41.4972 -46.3792 -51.2612 -58.5842 -56.1432 -51.2612 -41.4972 -29.2921 -24.4101 -26.8511 -36.6152 -48.8202 -61.0252 -70.7893 -78.1123 -78.1123 -80.5533 -80.5533 -80.5533 -80.5533 -82.9943 -85.4353 -85.4353 -80.5533 -78.1123 -75.6713 -75.6713 -82.9943 -87.8764 -92.7584 -100.081 -100.081 -100.081 -95.1994 -85.4353 -80.5533 -80.5533 -82.9943 -85.4353 -90.3174 -100.081 -107.404 -107.404 -109.845 -109.845 -107.404 -107.404 -107.404 -104.963 -104.963 -107.404 -107.404 -107.404 -102.522 -97.6404 -95.1994 -95.1994 -87.8764 -82.9943 -82.9943 -90.3174 -92.7584 -102.522 -109.845 -122.05 -124.492 -117.168 -114.727 -109.845 -100.081 -95.1994 -87.8764 -87.8764 -90.3174 -85.4353 -68.3483 -58.5842 -61.0252 -70.7893 -70.7893 -70.7893 -73.2303 -90.3174 -95.1994 -87.8764 -85.4353 -87.8764 -90.3174 -85.4353 -80.5533 -78.1123 -73.2303 -70.7893 -70.7893 -80.5533 -82.9943 -87.8764 -92.7584 -97.6404 -102.522 -104.963 -104.963 -107.404 -107.404 -112.286 -112.286 -112.286 -112.286 -114.727 -117.168 -114.727 -119.609 -131.815 -141.579 -146.461 -156.225 -170.871 -183.076 -183.076 -180.635 -178.194 -180.635 -183.076 -183.076 -180.635 -183.076 -190.399 -195.281 -195.281 -195.281 -197.722 -200.163 -197.722 -197.722 -207.486 -209.927 -212.368 -214.809 -219.691 -227.014 -231.896 -234.337 -239.219 -244.101 -248.983 -244.101 -239.219 -234.337 -239.219 -246.542 -246.542 -251.424 -258.747 -266.07 -266.07 -261.188 -256.306 -248.983 -244.101 -241.66 -241.66 -244.101 -248.983 -256.306 -261.188 -261.188 -258.747 -253.865 -244.101 -239.219 -236.778 -239.219 -253.865 -270.952 -288.039 -300.244 -310.008 -312.449 -305.126 -292.921 -285.598 -285.598 -290.48 -288.039 -280.716 -275.834 -273.393 -266.07 -261.188 -256.306 -268.511 -292.921 -312.449 -319.772 -319.772 -324.654 -324.654 -317.331 -305.126 -302.685 -305.126 -310.008 -314.89 -319.772 -319.772 -319.772 -322.213 -319.772 -314.89 -312.449 -317.331 -319.772 -312.449 -305.126 -307.567 -312.449 -314.89 -312.449 -317.331 -331.977 -344.182 -349.064 -346.623 -344.182 -341.741 -336.859 -334.418 -329.536 -329.536 -334.418 -336.859 -344.182 -349.064 -353.946 -361.269 -358.828 -351.505 -344.182 -341.741 -344.182 -344.182 -344.182 -341.741 -344.182 -344.182 -339.3 -329.536 -324.654 -322.213 -322.213 -319.772 -310.008 -292.921 -283.157 -275.834 -268.511 -263.629 -263.629 -268.511 -270.952 -263.629 -258.747 -246.542 -234.337 -222.132 -214.809 -212.368 -209.927 -214.809 -219.691 -222.132 -219.691 -219.691 -227.014 -227.014 -227.014 -231.896 -244.101 -253.865 -261.188 -273.393 -283.157 -285.598 -288.039 -280.716 -275.834 -263.629 -253.865 -246.542 -246.542 -246.542 -253.865 -261.188 -266.07 -270.952 -273.393 -270.952 -268.511 -261.188 -258.747 -253.865 -258.747 -270.952 -275.834 -283.157 -292.921 -305.126 -312.449 -302.685 -295.362 -300.244 -312.449 -317.331 -319.772 -329.536 -346.623 -356.387 -351.505 -341.741 -339.3 -331.977 -314.89 -297.803 -297.803 -300.244 -297.803 -283.157 -273.393 -258.747 -229.455 -183.076 -134.256 -85.4353 -31.7331 32.5468 103.336 171.684 242.474 308.381 362.083 396.257 408.462 401.139 362.083 296.176 215.623 125.305 32.5468 -56.1432 -131.815 -187.958 -229.455 -256.306 -270.952 -273.393 -270.952 -261.188 -251.424 -246.542 -241.66 -234.337 -224.573 -219.691 -219.691 -209.927 -197.722 -190.399 -185.517 -185.517 -183.076 -180.635 -180.635 -183.076 -180.635 -175.753 -168.43 -165.989 -163.548 -153.784 -141.579 -139.138 -144.02 -146.461 -141.579 -139.138 -139.138 -131.815 -109.845 -95.1994 -97.6404 -102.522 -102.522 -104.963 -109.845 -117.168 -119.609 -114.727 -112.286 -109.845 -109.845 -104.963 -90.3174 -70.7893 -53.7022 -46.3792 -43.9382 -39.0562 -39.0562 -51.2612 -63.4663 -58.5842 -51.2612 -51.2612 -53.7022 -51.2612 -36.6152 -26.8511 -19.5281 -8.95037 5.69569 25.2238 37.4288 42.3108 49.6339 54.5159 56.9569 56.9569 59.3979 61.8389 66.7209 74.044 76.485 71.603 78.926 88.69 93.5721 93.5721 81.367 83.808 88.69 83.808 86.249 86.249 91.131 93.5721 93.5721 98.4541 100.895 105.777 117.982 130.187 139.951 139.951 142.392 135.069 127.746 122.864 120.423 113.1 103.336 98.4541 98.4541 98.4541 88.69 86.249 93.5721 93.5721 91.131 86.249 86.249 91.131 91.131 91.131 91.131 96.0131 93.5721 93.5721 91.131 86.249 83.808 81.367 78.926 74.044 66.7209 66.7209 66.7209 66.7209 66.7209 66.7209 69.1619 69.1619 66.7209 61.8389 56.9569 56.9569 59.3979 59.3979 59.3979 64.2799 71.603 76.485 76.485 74.044 76.485 83.808 88.69 93.5721 103.336 110.659 122.864 127.746 122.864 113.1 96.0131 86.249 78.926 74.044 81.367 100.895 125.305 142.392 139.951 132.628 127.746 115.541 100.895 86.249 88.69 98.4541 110.659 122.864 135.069 142.392 149.715 149.715 149.715 147.274 144.833 144.833 144.833 149.715 152.156 157.038 152.156 152.156 152.156 157.038 161.92 164.361 171.684 183.889 198.535 213.182 227.828 242.474 244.915 235.151 220.505 205.859 200.976 193.653 188.771 191.212 193.653 203.417 203.417 205.859 200.976 203.417 213.182 218.064 215.623 215.623 213.182 218.064 222.946 227.828 237.592 240.033 240.033 237.592 232.71 227.828 227.828 235.151 237.592 247.356 259.561 266.884 269.325 266.884 264.443 266.884 262.002 259.561 259.561 259.561 264.443 266.884 262.002 262.002 269.325 281.53 291.294 301.058 313.263 320.586 315.704 301.058 288.853 279.089 264.443 257.12 257.12 264.443 269.325 269.325 269.325 269.325 271.766 274.207 281.53 286.412 293.735 296.176 301.058 305.94 305.94 301.058 298.617 298.617 298.617 293.735 293.735 288.853 291.294 296.176 303.499 308.381 313.263 320.586 325.468 325.468 323.027 320.586 318.145 310.822 308.381 303.499 301.058 298.617 296.176 296.176 293.735 286.412 283.971 283.971 283.971 281.53 279.089 279.089 279.089 279.089 279.089 276.648 276.648 281.53 286.412 286.412 286.412 288.853 291.294 291.294 288.853 288.853 293.735 296.176 298.617 298.617 301.058 308.381 313.263 313.263 318.145 323.027 327.909 332.791 332.791 330.35 332.791 327.909 327.909 327.909 330.35 323.027 313.263 313.263 320.586 327.909 337.673 357.201 391.375 425.549 464.606 510.985 572.01 635.476 706.266 779.496 855.167 928.397 991.864 1040.68 1082.18 1106.59 1113.91 1091.95 1035.8 952.808 857.608 755.086 650.122 550.041 467.047 401.139 357.201 323.027 303.499 291.294 286.412 286.412 288.853 296.176 305.94 313.263 323.027 332.791 340.114 340.114 340.114 340.114 340.114 340.114 340.114 340.114 340.114 340.114 335.232 330.35 335.232 337.673 342.555 344.996 342.555 342.555 335.232 332.791 332.791 325.468 323.027 325.468 332.791 337.673 337.673 342.555 347.437 344.996 337.673 325.468 318.145 313.263 308.381 308.381 308.381 313.263 318.145 318.145 318.145 313.263 315.704 315.704 310.822 305.94 301.058 296.176 291.294 288.853 286.412 283.971 281.53 279.089 274.207 269.325 259.561 249.797 244.915 240.033 235.151 230.269 230.269 235.151 237.592 235.151 227.828 215.623 208.3 200.976 191.212 183.889 179.007 181.448 183.889 186.33 186.33 188.771 186.33 181.448 169.243 159.479 152.156 147.274 144.833 142.392 144.833 147.274 147.274 147.274 142.392 142.392 139.951 139.951 142.392 139.951 135.069 130.187 127.746 125.305 120.423 115.541 108.218 100.895 93.5721 86.249 78.926 76.485 76.485 76.485 78.926 76.485 71.603 69.1619 66.7209 61.8389 49.6339 37.4288 30.1058 22.7828 13.0187 0.81367 -4.06835 -4.06835 -4.06835 -8.95037 -11.3914 -11.3914 -8.95037 -11.3914 -14.6461 -17.0871 -24.4101 -29.2921 -39.0562 -46.3792 -53.7022 -53.7022 -51.2612 -48.8202 -46.3792 -43.9382 -43.9382 -48.8202 -53.7022 -63.4663 -68.3483 -70.7893 -73.2303 -73.2303 -73.2303 -75.6713 -82.9943 -90.3174 -102.522 -109.845 -114.727 -117.168 -114.727 -109.845 -104.963 -102.522 -107.404 -112.286 -117.168 -122.05 -129.374 -131.815 -126.933 -126.933 -122.05 -119.609 -122.05 -124.492 -129.374 -129.374 -134.256 -139.138 -136.697 -131.815 -129.374 -126.933 -126.933 -126.933 -129.374 -134.256 -136.697 -134.256 -129.374 -124.492 -117.168 -112.286 -109.845 -117.168 -122.05 -124.492 -124.492 -126.933 -126.933 -124.492 -119.609 -119.609 -126.933 -131.815 -136.697 -134.256 -134.256 -134.256 -131.815 -129.374 -126.933 -129.374 -134.256 -136.697 -134.256 -131.815 -129.374 -124.492 -122.05 -122.05 -124.492 -129.374 -134.256 -139.138 -144.02 -144.02 -144.02 -141.579 -136.697 -129.374 -119.609 -119.609 -122.05 -119.609 -122.05 -124.492 -131.815 -134.256 -129.374 -129.374 -126.933 -124.492 -122.05 -119.609 -117.168 -114.727 -107.404 -100.081 -95.1994 -92.7584 -97.6404 -97.6404 -92.7584 -92.7584 -97.6404 -95.1994 -82.9943 -68.3483 -61.0252 -53.7022 -46.3792 -36.6152 -34.1741 -39.0562 -48.8202 -61.0252 -70.7893 -80.5533 -87.8764 -82.9943 -78.1123 -68.3483 -58.5842 -48.8202 -46.3792 -48.8202 -48.8202 -51.2612 -58.5842 -61.0252 -68.3483 -73.2303 -73.2303 -73.2303 -73.2303 -73.2303 -68.3483 -61.0252 -58.5842 -65.9073 -75.6713 -80.5533 -87.8764 -102.522 -114.727 -114.727 -112.286 -109.845 -104.963 -102.522 -97.6404 -97.6404 -100.081 -104.963 -109.845 -114.727 -119.609 -119.609 -119.609 -119.609 -119.609 -122.05 -124.492 -129.374 -129.374 -129.374 -131.815 -136.697 -136.697 -136.697 -139.138 -141.579 -144.02 -146.461 -146.461 -146.461 -146.461 -146.461 -146.461 -146.461 -141.579 -129.374 -122.05 -122.05 -117.168 -104.963 -87.8764 -65.9073 -39.0562 8.1367 71.603 142.392 218.064 303.499 391.375 469.488 532.954 581.774 620.83 637.917 630.594 598.861 547.6 476.811 388.934 286.412 179.007 69.1619 -24.4101 -97.6404 -151.343 -195.281 -224.573 -239.219 -239.219 -239.219 -234.337 -224.573 -214.809 -202.604 -192.84 -185.517 -178.194 -173.312 -165.989 -156.225 -153.784 -156.225 -156.225 -156.225 -156.225 -158.666 -165.989 -163.548 -163.548 -158.666 -158.666 -158.666 -156.225 -153.784 -151.343 -146.461 -146.461 -148.902 -146.461 -146.461 -151.343 -156.225 -161.107 -158.666 -158.666 -163.548 -165.989 -163.548 -156.225 -153.784 -148.902 -141.579 -136.697 -136.697 -134.256 -136.697 -139.138 -141.579 -146.461 -146.461 -148.902 -151.343 -156.225 -156.225 -156.225 -153.784 -156.225 -158.666 -158.666 -161.107 -165.989 -168.43 -168.43 -168.43 -173.312 -173.312 -175.753 -175.753 -175.753 -175.753 -175.753 -173.312 -170.871 -173.312 -178.194 -180.635 -180.635 -175.753 -175.753 -175.753 -165.989 -165.989 -163.548 -161.107 -158.666 -156.225 -151.343 -151.343 -144.02 -141.579 -136.697 -134.256 -129.374 -126.933 -126.933 -124.492 -124.492 -124.492 -129.374 -134.256 -129.374 -124.492 -122.05 -117.168 -107.404 -97.6404 -87.8764 -85.4353 -87.8764 -90.3174 -85.4353 -82.9943 -82.9943 -82.9943 -78.1123 -73.2303 -78.1123 -82.9943 -87.8764 -90.3174 -90.3174 -87.8764 -80.5533 -75.6713 -70.7893 -70.7893 -70.7893 -75.6713 -82.9943 -87.8764 -90.3174 -92.7584 -92.7584 -92.7584 -90.3174 -90.3174 -92.7584 -95.1994 -97.6404 -102.522 -102.522 -100.081 -95.1994 -95.1994 -95.1994 -87.8764 -87.8764 -87.8764 -97.6404 -100.081 -95.1994 -92.7584 -92.7584 -90.3174 -82.9943 -73.2303 -75.6713 -73.2303 -70.7893 -70.7893 -73.2303 -75.6713 -70.7893 -70.7893 -70.7893 -68.3483 -63.4663 -61.0252 -65.9073 -68.3483 -68.3483 -73.2303 -73.2303 -73.2303 -70.7893 -68.3483 -68.3483 -70.7893 -75.6713 -78.1123 -75.6713 -73.2303 -70.7893 -70.7893 -63.4663 -53.7022 -46.3792 -48.8202 -48.8202 -53.7022 -53.7022 -56.1432 -58.5842 -58.5842 -56.1432 -51.2612 -46.3792 -43.9382 -48.8202 -53.7022 -53.7022 -48.8202 -46.3792 -43.9382 -36.6152 -29.2921 -26.8511 -31.7331 -36.6152 -39.0562 -41.4972 -41.4972 -41.4972 -39.0562 -31.7331 -26.8511 -24.4101 -29.2921 -34.1741 -36.6152 -34.1741 -31.7331 -29.2921 -26.8511 -21.9691 -14.6461 -14.6461 -14.6461 -14.6461 -17.0871 -17.0871 -17.0871 -14.6461 -11.3914 -6.50936 3.25468 8.1367 13.0187 13.0187 15.4597 17.9007 15.4597 15.4597 15.4597 20.3417 22.7828 25.2238 27.6648 30.1058 30.1058 27.6648 27.6648 30.1058 34.9878 37.4288 39.8698 42.3108 44.7519 42.3108 39.8698 39.8698 42.3108 47.1929 54.5159 59.3979 64.2799 66.7209 66.7209 64.2799 59.3979 56.9569 54.5159 52.0749 47.1929 42.3108 39.8698 39.8698 39.8698 42.3108 44.7519 49.6339 54.5159 59.3979 59.3979 59.3979 54.5159 52.0749 52.0749 47.1929 37.4288 32.5468 27.6648 25.2238 20.3417 17.9007 15.4597 10.5777 5.69569 5.69569 3.25468 3.25468 8.1367 8.1367 10.5777 13.0187 15.4597 17.9007 13.0187 5.69569 3.25468 3.25468 5.69569 5.69569 5.69569 10.5777 15.4597 15.4597 10.5777 8.1367 8.1367 5.69569 0.81367 -1.62734 -1.62734 -1.62734 -4.06835 0.81367 3.25468 10.5777 10.5777 17.9007 22.7828 22.7828 17.9007 13.0187 10.5777 10.5777 10.5777 15.4597 17.9007 25.2238 37.4288 54.5159 76.485 103.336 144.833 196.094 259.561 325.468 401.139 484.134 562.246 635.476 706.266 764.85 806.347 823.434 816.111 784.378 713.589 618.389 510.985 393.816 279.089 176.566 91.131 32.5468 -14.6461 -48.8202 -68.3483 -78.1123 -80.5533 -80.5533 -75.6713 -63.4663 -58.5842 -53.7022 -48.8202 -41.4972 -39.0562 -39.0562 -36.6152 -29.2921 -24.4101 -21.9691 -24.4101 -26.8511 -26.8511 -29.2921 -29.2921 -34.1741 -34.1741 -29.2921 -26.8511 -21.9691 -21.9691 -24.4101 -26.8511 -26.8511 -29.2921 -29.2921 -29.2921 -26.8511 -26.8511 -21.9691 -21.9691 -19.5281 -19.5281 -21.9691 -21.9691 -21.9691 -24.4101 -24.4101 -24.4101 -21.9691 -17.0871 -17.0871 -19.5281 -24.4101 -26.8511 -26.8511 -26.8511 -26.8511 -24.4101 -19.5281 -14.6461 -14.6461 -19.5281 -24.4101 -24.4101 -21.9691 -21.9691 -21.9691 -19.5281 -14.6461 -14.6461 -11.3914 -14.6461 -14.6461 -14.6461 -14.6461 -14.6461 -14.6461 -11.3914 -4.06835 -1.62734 -1.62734 -4.06835 -8.95037 -14.6461 -14.6461 -14.6461 -11.3914 -6.50936 0.81367 8.1367 8.1367 8.1367 5.69569 5.69569 10.5777 13.0187 20.3417 30.1058 37.4288 42.3108 44.7519 44.7519 44.7519 42.3108 42.3108 47.1929 47.1929 47.1929 54.5159 61.8389 64.2799 59.3979 59.3979 61.8389 56.9569 52.0749 54.5159 56.9569 61.8389 66.7209 69.1619 69.1619 66.7209 59.3979 52.0749 47.1929 42.3108 42.3108 44.7519 47.1929 52.0749 52.0749 49.6339 42.3108 34.9878 27.6648 17.9007 8.1367 0.81367 0.81367 0.81367 -1.62734 -6.50936 -8.95037 -11.3914 -14.6461 -19.5281 -26.8511 -26.8511 -24.4101 -21.9691 -17.0871 -17.0871 -19.5281 -19.5281 -19.5281 -24.4101 -24.4101 -24.4101 -24.4101 -19.5281 -19.5281 -21.9691 -29.2921 -31.7331 -36.6152 -39.0562 -43.9382 -41.4972 -34.1741 -24.4101 -17.0871 -14.6461 -14.6461 -14.6461 -21.9691 -26.8511 -34.1741 -34.1741 -29.2921 -21.9691 -21.9691 -21.9691 -26.8511 -31.7331 -39.0562 -39.0562 -41.4972 -39.0562 -34.1741 -31.7331 -29.2921 -34.1741 -43.9382 -51.2612 -53.7022 -53.7022 -53.7022 -51.2612 -48.8202 -43.9382 -43.9382 -48.8202 -53.7022 -61.0252 -63.4663 -61.0252 -58.5842 -58.5842 -51.2612 -43.9382 -39.0562 -39.0562 -41.4972 -43.9382 -46.3792 -48.8202 -53.7022 -53.7022 -53.7022 -56.1432 -53.7022 -53.7022 -53.7022 -58.5842 -61.0252 -56.1432 -56.1432 -53.7022 -41.4972 -31.7331 -29.2921 -31.7331 -31.7331 -34.1741 -39.0562 -46.3792 -48.8202 -46.3792 -41.4972 -36.6152 -31.7331 -31.7331 -31.7331 -34.1741 -36.6152 -41.4972 -43.9382 -46.3792 -43.9382 -41.4972 -39.0562 -36.6152 -34.1741 -34.1741 -31.7331 -31.7331 -29.2921 -26.8511 -24.4101 -19.5281 -14.6461 -11.3914 -8.95037 -11.3914 -17.0871 -19.5281 -19.5281 -19.5281 -19.5281 -17.0871 -14.6461 -8.95037 -8.95037 -4.06835 -4.06835 -4.06835 -6.50936 -6.50936 -6.50936 -8.95037 -11.3914 -14.6461 -14.6461 -19.5281 -21.9691 -24.4101 -24.4101 -24.4101 -24.4101 -19.5281 -14.6461 -14.6461 -6.50936 -6.50936 -8.95037 -14.6461 -19.5281 -26.8511 -34.1741 -41.4972 -41.4972 -46.3792 -48.8202 -51.2612 -56.1432 -58.5842 -63.4663 -65.9073 -65.9073 -63.4663 -61.0252 -58.5842 -53.7022 -48.8202 -48.8202 -56.1432 -61.0252 -61.0252 -61.0252 -63.4663 -61.0252 -53.7022 -46.3792 -43.9382 -48.8202 -53.7022 -58.5842 -65.9073 -68.3483 -68.3483 -65.9073 -58.5842 -51.2612 -48.8202 -48.8202 -51.2612 -53.7022 -53.7022 -53.7022 -53.7022 -51.2612 -48.8202 -43.9382 -39.0562 -39.0562 -34.1741 -26.8511 -19.5281 -8.95037 13.0187 42.3108 83.808 135.069 193.653 262.002 335.232 410.903 486.575 562.246 633.035 689.178 733.117 757.527 752.645 720.912 650.122 554.923 449.96 335.232 220.505 117.982 37.4288 -14.6461 -58.5842 -90.3174 -107.404 -114.727 -114.727 -109.845 -102.522 -95.1994 -85.4353 -80.5533 -73.2303 -73.2303 -73.2303 -73.2303 -63.4663 -53.7022 -53.7022 -51.2612 -51.2612 -51.2612 -53.7022 -61.0252 -63.4663 -63.4663 -61.0252 -56.1432 -53.7022 -51.2612 -48.8202 -48.8202 -53.7022 -56.1432 -56.1432 -56.1432 -56.1432 -53.7022 -51.2612 -51.2612 -48.8202 -46.3792 -46.3792 -51.2612 -56.1432 -58.5842 -58.5842 -58.5842 -58.5842 -53.7022 -48.8202 -41.4972 -41.4972 -41.4972 -48.8202 -56.1432 -61.0252 -61.0252 -58.5842 -53.7022 -48.8202 -39.0562 -31.7331 -31.7331 -34.1741 -36.6152 -39.0562 -39.0562 -41.4972 -39.0562 -34.1741 -29.2921 -29.2921 -31.7331 -36.6152 -41.4972 -43.9382 -43.9382 -36.6152 -31.7331 -24.4101 -21.9691 -21.9691 -17.0871 -14.6461 -14.6461 -19.5281 -21.9691 -17.0871 -11.3914 -14.6461 -14.6461 -14.6461 -6.50936 -4.06835 0.81367 3.25468 8.1367 15.4597 20.3417 22.7828 25.2238 25.2238 25.2238 27.6648 27.6648 27.6648 30.1058 32.5468 34.9878 34.9878 39.8698 39.8698 37.4288 32.5468 30.1058 32.5468 32.5468 37.4288 47.1929 54.5159 64.2799 69.1619 64.2799 59.3979 52.0749 47.1929 42.3108 32.5468 32.5468 37.4288 39.8698 37.4288 32.5468 30.1058 25.2238 17.9007 13.0187 8.1367 8.1367 8.1367 8.1367 8.1367 0.81367 -4.06835 -11.3914 -17.0871 -19.5281 -19.5281 -17.0871 -14.6461 -14.6461 -17.0871 -21.9691 -26.8511 -31.7331 -36.6152 -39.0562 -39.0562 -39.0562 -34.1741 -29.2921 -29.2921 -36.6152 -34.1741 -34.1741 -39.0562 -41.4972 -43.9382 -36.6152 -34.1741 -31.7331 -29.2921 -31.7331 -36.6152 -41.4972 -48.8202 -53.7022 -56.1432 -51.2612 -46.3792 -46.3792 -46.3792 -46.3792 -48.8202 -51.2612 -53.7022 -53.7022 -51.2612 -43.9382 -43.9382 -41.4972 -43.9382 -53.7022 -58.5842 -63.4663 -65.9073 -65.9073 -65.9073 -56.1432 -48.8202 -41.4972 -41.4972 -41.4972 -46.3792 -48.8202 -48.8202 -51.2612 -51.2612 -46.3792 -41.4972 -34.1741 -36.6152 -41.4972 -46.3792 -56.1432 -61.0252 -65.9073 -70.7893 -68.3483 -58.5842 -46.3792 -39.0562 -43.9382 -46.3792 -48.8202 -51.2612 -58.5842 -61.0252 -56.1432 -48.8202 -43.9382 -41.4972 -41.4972 -43.9382 -46.3792 -48.8202 -46.3792 -46.3792 -39.0562 -34.1741 -34.1741 -31.7331 -31.7331 -31.7331 -31.7331 -34.1741 -36.6152 -34.1741 -29.2921 -29.2921 -26.8511 -26.8511 -21.9691 -21.9691 -29.2921 -36.6152 -39.0562 -41.4972 -36.6152 -31.7331 -29.2921 -24.4101 -21.9691 -19.5281 -17.0871 -17.0871 -19.5281 -19.5281 -19.5281 -19.5281 -14.6461 -14.6461 -14.6461 -14.6461 -14.6461 -14.6461 -14.6461 -17.0871 -17.0871 -14.6461 -11.3914 -11.3914 -17.0871 -19.5281 -19.5281 -19.5281 -19.5281 -17.0871 -14.6461 -8.95037 -4.06835 -4.06835 -11.3914 -14.6461 -14.6461 -14.6461 -21.9691 -26.8511 -31.7331 -31.7331 -36.6152 -36.6152 -39.0562 -39.0562 -39.0562 -43.9382 -43.9382 -46.3792 -48.8202 -46.3792 -43.9382 -39.0562 -36.6152 -36.6152 -36.6152 -41.4972 -43.9382 -48.8202 -51.2612 -51.2612 -48.8202 -43.9382 -43.9382 -43.9382 -41.4972 -41.4972 -43.9382 -48.8202 -48.8202 -43.9382 -41.4972 -39.0562 -41.4972 -43.9382 -43.9382 -46.3792 -48.8202 -51.2612 -51.2612 -48.8202 -43.9382 -41.4972 -41.4972 -41.4972 -39.0562 -34.1741 -26.8511 -21.9691 -11.3914 13.0187 44.7519 76.485 115.541 169.243 230.269 291.294 357.201 425.549 498.78 567.128 623.271 667.209 691.62 691.62 667.209 606.184 520.749 423.108 320.586 218.064 122.864 44.7519 -14.6461 -51.2612 -78.1123 -95.1994 -104.963 -104.963 -100.081 -97.6404 -90.3174 -85.4353 -80.5533 -78.1123 -78.1123 -75.6713 -73.2303 -73.2303 -73.2303 -68.3483 -65.9073 -61.0252 -61.0252 -56.1432 -48.8202 -48.8202 -51.2612 -53.7022 -53.7022 -53.7022 -56.1432 -56.1432 -56.1432 -51.2612 -53.7022 -58.5842 -63.4663 -63.4663 -63.4663 -63.4663 -58.5842 -53.7022 -46.3792 -46.3792 -48.8202 -51.2612 -51.2612 -56.1432 -56.1432 -58.5842 -58.5842 -58.5842 -56.1432 -56.1432 -61.0252 -61.0252 -58.5842 -56.1432 -56.1432 -53.7022 -46.3792 -43.9382 -46.3792 -46.3792 -43.9382 -48.8202 -51.2612 -53.7022 -56.1432 -51.2612 -43.9382 -36.6152 -36.6152 -36.6152 -36.6152 -39.0562 -41.4972 -46.3792 -46.3792 -39.0562 -34.1741 -29.2921 -26.8511 -26.8511 -26.8511 -29.2921 -34.1741 -36.6152 -36.6152 -31.7331 -26.8511 -21.9691 -19.5281 -14.6461 -11.3914 -6.50936 -6.50936 -4.06835 0.81367 5.69569 8.1367 8.1367 5.69569 5.69569 5.69569 10.5777 15.4597 20.3417 25.2238 32.5468 37.4288 39.8698 37.4288 34.9878 34.9878 32.5468 32.5468 25.2238 22.7828 25.2238 30.1058 34.9878 37.4288 37.4288 34.9878 34.9878 30.1058 25.2238 22.7828 27.6648 30.1058 30.1058 27.6648 25.2238 22.7828 13.0187 5.69569 -1.62734 -6.50936 -8.95037 -11.3914 -14.6461 -17.0871 -14.6461 -14.6461 -14.6461 -14.6461 -14.6461 -14.6461 -17.0871 -19.5281 -19.5281 -21.9691 -21.9691 -24.4101 -26.8511 -29.2921 -31.7331 -34.1741 -34.1741 -29.2921 -26.8511 -29.2921 -29.2921 -34.1741 -36.6152 -41.4972 -41.4972 -43.9382 -46.3792 -46.3792 -46.3792 -46.3792 -46.3792 -46.3792 -46.3792 -46.3792 -48.8202 -43.9382 -41.4972 -41.4972 -41.4972 -41.4972 -36.6152 -31.7331 -34.1741 -34.1741 -39.0562 -41.4972 -43.9382 -48.8202 -53.7022 -58.5842 -56.1432 -53.7022 -51.2612 -48.8202 -48.8202 -48.8202 -46.3792 -43.9382 -43.9382 -46.3792 -46.3792 -48.8202 -48.8202 -51.2612 -53.7022 -53.7022 -53.7022 -51.2612 -48.8202 -48.8202 -48.8202 -46.3792 -43.9382 -41.4972 -46.3792 -48.8202 -48.8202 -48.8202 -48.8202 -51.2612 -46.3792 -41.4972 -39.0562 -36.6152 -36.6152 -36.6152 -36.6152 -39.0562 -39.0562 -41.4972 -39.0562 -36.6152 -36.6152 -34.1741 -36.6152 -39.0562 -39.0562 -41.4972 -46.3792 -46.3792 -43.9382 -39.0562 -34.1741 -31.7331 -21.9691 -17.0871 -21.9691 -26.8511 -26.8511 -26.8511 -29.2921 -34.1741 -36.6152 -34.1741 -34.1741 -36.6152 -34.1741 -34.1741 -34.1741 -36.6152 -34.1741 -31.7331 -29.2921 -24.4101 -21.9691 -19.5281 -21.9691 -21.9691 -21.9691 -21.9691 -19.5281 -14.6461 -4.06835 3.25468 3.25468 0.81367 -4.06835 -8.95037 -11.3914 -14.6461 -11.3914 -8.95037 -6.50936 -6.50936 -6.50936 -11.3914 -14.6461 -19.5281 -19.5281 -19.5281 -17.0871 -14.6461 -11.3914 -8.95037 -11.3914 -14.6461 -21.9691 -31.7331 -34.1741 -36.6152 -34.1741 -31.7331 -29.2921 -29.2921 -31.7331 -36.6152 -41.4972 -46.3792 -51.2612 -56.1432 -56.1432 -53.7022 -56.1432 -58.5842 -58.5842 -56.1432 -56.1432 -58.5842 -58.5842 -56.1432 -58.5842 -58.5842 -56.1432 -51.2612 -48.8202 -48.8202 -48.8202 -51.2612 -56.1432 -56.1432 -58.5842 -58.5842 -56.1432 -53.7022 -53.7022 -48.8202 -48.8202 -51.2612 -53.7022 -53.7022 -51.2612 -46.3792 -43.9382 -41.4972 -41.4972 -41.4972 -39.0562 -31.7331 -26.8511 -17.0871 0.81367 27.6648 61.8389 98.4541 142.392 203.417 266.884 340.114 413.344 489.016 562.246 628.153 679.414 716.03 725.794 713.589 669.65 596.42 508.544 408.462 305.94 205.859 115.541 42.3108 -14.6461 -61.0252 -95.1994 -112.286 -119.609 -117.168 -109.845 -100.081 -85.4353 -78.1123 -73.2303 -73.2303 -70.7893 -70.7893 -70.7893 -70.7893 -65.9073 -61.0252 -56.1432 -51.2612 -48.8202 -46.3792 -48.8202 -53.7022 -56.1432 -61.0252 -63.4663 -63.4663 -56.1432 -51.2612 -43.9382 -39.0562 -36.6152 -34.1741 -36.6152 -43.9382 -48.8202 -51.2612 -51.2612 -51.2612 -51.2612 -53.7022 -58.5842 -61.0252 -63.4663 -65.9073 -63.4663 -56.1432 -51.2612 -46.3792 -43.9382 -46.3792 -46.3792 -48.8202 -48.8202 -51.2612 -48.8202 -43.9382 -41.4972 -46.3792 -46.3792 -46.3792 -46.3792 -48.8202 -53.7022 -53.7022 -51.2612 -48.8202 -48.8202 -46.3792 -43.9382 -43.9382 -41.4972 -43.9382 -43.9382 -43.9382 -48.8202 -46.3792 -41.4972 -36.6152 -34.1741 -34.1741 -29.2921 -29.2921 -29.2921 -29.2921 -26.8511 -21.9691 -21.9691 -17.0871 -14.6461 -14.6461 -14.6461 -14.6461 -14.6461 -14.6461 -8.95037 -4.06835 3.25468 10.5777 17.9007 20.3417 20.3417 20.3417 20.3417 17.9007 17.9007 17.9007 17.9007 22.7828 27.6648 30.1058 30.1058 30.1058 32.5468 30.1058 27.6648 27.6648 27.6648 30.1058 32.5468 37.4288 39.8698 39.8698 39.8698 34.9878 34.9878 34.9878 37.4288 37.4288 39.8698 37.4288 34.9878 27.6648 22.7828 15.4597 13.0187 10.5777 5.69569 0.81367 0.81367 -4.06835 -6.50936 -11.3914 -8.95037 -8.95037 -11.3914 -11.3914 -8.95037 -8.95037 -8.95037 -11.3914 -11.3914 -11.3914 -14.6461 -19.5281 -24.4101 -26.8511 -24.4101 -24.4101 -24.4101 -19.5281 -14.6461 -11.3914 -11.3914 -11.3914 -14.6461 -14.6461 -14.6461 -14.6461 -14.6461 -19.5281 -21.9691 -21.9691 -21.9691 -26.8511 -29.2921 -31.7331 -31.7331 -34.1741 -34.1741 -29.2921 -26.8511 -24.4101 -19.5281 -19.5281 -19.5281 -19.5281 -17.0871 -21.9691 -26.8511 -26.8511 -29.2921 -31.7331 -39.0562 -41.4972 -41.4972 -41.4972 -41.4972 -41.4972 -39.0562 -39.0562 -34.1741 -29.2921 -34.1741 -36.6152 -39.0562 -39.0562 -39.0562 -43.9382 -43.9382 -41.4972 -41.4972 -39.0562 -39.0562 -43.9382 -43.9382 -43.9382 -41.4972 -41.4972 -39.0562 -36.6152 -34.1741 -31.7331 -29.2921 -31.7331 -34.1741 -34.1741 -34.1741 -36.6152 -36.6152 -34.1741 -34.1741 -31.7331 -29.2921 -29.2921 -31.7331 -31.7331 -26.8511 -21.9691 -17.0871 -11.3914 -6.50936 -4.06835 -6.50936 -14.6461 -17.0871 -19.5281 -26.8511 -36.6152 -36.6152 -31.7331 -24.4101 -24.4101 -19.5281 -14.6461 -6.50936 -6.50936 -14.6461 -17.0871 -19.5281 -19.5281 -19.5281 -19.5281 -14.6461 -14.6461 -8.95037 -8.95037 -4.06835 -1.62734 -1.62734 -4.06835 -1.62734 0.81367 0.81367 -1.62734 -1.62734 -1.62734 -4.06835 -8.95037 -14.6461 -14.6461 -17.0871 -17.0871 -14.6461 -14.6461 -19.5281 -19.5281 -17.0871 -14.6461 -8.95037 -6.50936 -1.62734 3.25468 0.81367 -6.50936 -14.6461 -19.5281 -26.8511 -31.7331 -34.1741 -36.6152 -36.6152 -36.6152 -36.6152 -41.4972 -46.3792 -48.8202 -51.2612 -58.5842 -63.4663 -65.9073 -65.9073 -65.9073 -68.3483 -70.7893 -70.7893 -70.7893 -70.7893 -70.7893 -68.3483 -65.9073 -61.0252 -58.5842 -51.2612 -51.2612 -51.2612 -56.1432 -61.0252 -70.7893 -75.6713 -80.5533 -82.9943 -78.1123 -68.3483 -63.4663 -63.4663 -58.5842 -58.5842 -58.5842 -63.4663 -63.4663 -61.0252 -61.0252 -61.0252 -63.4663 -65.9073 -65.9073 -65.9073 -56.1432 -39.0562 -14.6461 20.3417 59.3979 108.218 166.802 230.269 298.617 371.847 449.96 528.072 598.861 659.886 706.266 733.117 737.999 718.471 669.65 589.097 493.898 391.375 283.971 176.566 78.926 5.69569 -46.3792 -90.3174 -119.609 -141.579 -148.902 -144.02 -139.138 -131.815 -126.933 -119.609 -112.286 -107.404 -104.963 -100.081 -92.7584 -85.4353 -75.6713 -70.7893 -70.7893 -73.2303 -78.1123 -82.9943 -87.8764 -92.7584 -90.3174 -85.4353 -82.9943 -78.1123 -70.7893 -63.4663 -63.4663 -68.3483 -70.7893 -73.2303 -70.7893 -68.3483 -73.2303 -73.2303 -73.2303 -73.2303 -78.1123 -82.9943 -85.4353 -82.9943 -82.9943 -80.5533 -75.6713 -70.7893 -68.3483 -65.9073 -68.3483 -68.3483 -73.2303 -78.1123 -82.9943 -82.9943 -80.5533 -78.1123 -75.6713 -70.7893 -70.7893 -73.2303 -75.6713 -75.6713 -75.6713 -75.6713 -75.6713 -73.2303 -68.3483 -65.9073 -68.3483 -68.3483 -70.7893 -70.7893 -70.7893 -68.3483 -63.4663 -56.1432 -51.2612 -46.3792 -46.3792 -48.8202 -51.2612 -56.1432 -56.1432 -56.1432 -53.7022 -48.8202 -43.9382 -36.6152 -31.7331 -26.8511 -26.8511 -26.8511 -29.2921 -26.8511 -21.9691 -17.0871 -14.6461 -8.95037 -4.06835 -4.06835 -4.06835 -4.06835 -4.06835 -1.62734 0.81367 0.81367 3.25468 5.69569 5.69569 5.69569 5.69569 10.5777 15.4597 17.9007 17.9007 20.3417 25.2238 30.1058 30.1058 27.6648 25.2238 27.6648 27.6648 22.7828 22.7828 27.6648 32.5468 37.4288 37.4288 34.9878 34.9878 30.1058 22.7828 17.9007 13.0187 8.1367 8.1367 8.1367 8.1367 10.5777 10.5777 10.5777 5.69569 0.81367 -6.50936 -8.95037 -8.95037 -6.50936 -6.50936 -8.95037 -8.95037 -8.95037 -11.3914 -14.6461 -17.0871 -19.5281 -19.5281 -17.0871 -17.0871 -14.6461 -14.6461 -11.3914 -8.95037 -11.3914 -17.0871 -21.9691 -24.4101 -26.8511 -26.8511 -24.4101 -21.9691 -21.9691 -19.5281 -14.6461 -17.0871 -21.9691 -29.2921 -29.2921 -29.2921 -29.2921 -29.2921 -29.2921 -29.2921 -26.8511 -29.2921 -31.7331 -31.7331 -29.2921 -29.2921 -31.7331 -34.1741 -34.1741 -34.1741 -34.1741 -34.1741 -34.1741 -34.1741 -29.2921 -26.8511 -26.8511 -29.2921 -29.2921 -29.2921 -31.7331 -36.6152 -39.0562 -39.0562 -36.6152 -36.6152 -36.6152 -34.1741 -31.7331 -36.6152 -36.6152 -39.0562 -31.7331 -26.8511 -24.4101 -19.5281 -19.5281 -19.5281 -21.9691 -24.4101 -29.2921 -31.7331 -36.6152 -36.6152 -34.1741 -31.7331 -24.4101 -17.0871 -14.6461 -14.6461 -14.6461 -21.9691 -26.8511 -34.1741 -34.1741 -26.8511 -19.5281 -14.6461 -6.50936 -4.06835 -4.06835 -8.95037 -14.6461 -21.9691 -29.2921 -31.7331 -29.2921 -21.9691 -17.0871 -14.6461 -8.95037 -6.50936 -6.50936 -8.95037 -8.95037 -11.3914 -8.95037 -4.06835 -1.62734 3.25468 5.69569 5.69569 8.1367 10.5777 10.5777 8.1367 5.69569 5.69569 8.1367 5.69569 3.25468 3.25468 8.1367 8.1367 8.1367 8.1367 8.1367 8.1367 8.1367 8.1367 5.69569 0.81367 -1.62734 -1.62734 -1.62734 -4.06835 -4.06835 3.25468 8.1367 8.1367 8.1367 8.1367 0.81367 -8.95037 -14.6461 -19.5281 -24.4101 -29.2921 -31.7331 -26.8511 -24.4101 -26.8511 -31.7331 -39.0562 -41.4972 -46.3792 -48.8202 -48.8202 -46.3792 -43.9382 -39.0562 -39.0562 -41.4972 -46.3792 -48.8202 -46.3792 -43.9382 -43.9382 -41.4972 -41.4972 -34.1741 -36.6152 -43.9382 -51.2612 -53.7022 -53.7022 -53.7022 -56.1432 -51.2612 -46.3792 -36.6152 -36.6152 -36.6152 -39.0562 -39.0562 -36.6152 -39.0562 -43.9382 -48.8202 -46.3792 -41.4972 -41.4972 -36.6152 -31.7331 -19.5281 -4.06835 13.0187 34.9878 69.1619 113.1 174.125 240.033 313.263 388.934 469.488 547.6 620.83 684.296 730.676 764.85 777.055 762.409 718.471 640.358 542.718 435.313 320.586 210.741 113.1 37.4288 -14.6461 -56.1432 -85.4353 -102.522 -109.845 -109.845 -109.845 -104.963 -95.1994 -87.8764 -78.1123 -75.6713 -73.2303 -68.3483 -65.9073 -63.4663 -63.4663 -63.4663 -58.5842 -56.1432 -53.7022 -56.1432 -56.1432 -53.7022 -56.1432 -58.5842 -58.5842 -58.5842 -56.1432 -51.2612 -46.3792 -46.3792 -46.3792 -43.9382 -43.9382 -43.9382 -46.3792 -46.3792 -48.8202 -46.3792 -46.3792 -48.8202 -51.2612 -56.1432 -56.1432 -56.1432 -56.1432 -56.1432 -53.7022 -48.8202 -43.9382 -46.3792 -48.8202 -51.2612 -51.2612 -51.2612 -53.7022 -51.2612 -46.3792 -41.4972 -36.6152 -36.6152 -39.0562 -43.9382 -48.8202 -48.8202 -51.2612 -51.2612 -46.3792 -39.0562 -34.1741 -36.6152 -41.4972 -46.3792 -43.9382 -41.4972 -41.4972 -36.6152 -26.8511 -14.6461 -8.95037 -14.6461 -19.5281 -21.9691 -21.9691 -26.8511 -29.2921 -26.8511 -19.5281 -14.6461 -6.50936 -6.50936 -6.50936 -6.50936 -6.50936 -6.50936 -6.50936 -1.62734 5.69569 13.0187 17.9007 22.7828 27.6648 30.1058 27.6648 27.6648 27.6648 34.9878 37.4288 39.8698 39.8698 39.8698 39.8698 37.4288 37.4288 37.4288 39.8698 44.7519 47.1929 52.0749 52.0749 47.1929 47.1929 42.3108 42.3108 42.3108 42.3108 39.8698 39.8698 37.4288 34.9878 27.6648 22.7828 22.7828 20.3417 17.9007 15.4597 13.0187 10.5777 5.69569 0.81367 -1.62734 0.81367 -1.62734 -4.06835 -4.06835 -4.06835 -4.06835 -4.06835 -4.06835 -4.06835 -4.06835 -6.50936 -11.3914 -14.6461 -21.9691 -26.8511 -26.8511 -26.8511 -24.4101 -21.9691 -21.9691 -21.9691 -21.9691 -21.9691 -21.9691 -21.9691 -21.9691 -24.4101 -24.4101 -26.8511 -29.2921 -29.2921 -29.2921 -31.7331 -31.7331 -31.7331 -31.7331 -34.1741 -34.1741 -31.7331 -31.7331 -36.6152 -41.4972 -41.4972 -41.4972 -46.3792 -48.8202 -48.8202 -46.3792 -48.8202 -51.2612 -51.2612 -51.2612 -48.8202 -46.3792 -43.9382 -41.4972 -39.0562 -39.0562 -43.9382 -46.3792 -46.3792 -48.8202 -53.7022 -56.1432 -56.1432 -51.2612 -48.8202 -46.3792 -41.4972 -39.0562 -36.6152 -39.0562 -43.9382 -46.3792 -46.3792 -48.8202 -46.3792 -43.9382 -41.4972 -41.4972 -41.4972 -46.3792 -46.3792 -41.4972 -41.4972 -41.4972 -36.6152 -34.1741 -29.2921 -31.7331 -31.7331 -31.7331 -29.2921 -26.8511 -26.8511 -26.8511 -29.2921 -31.7331 -36.6152 -39.0562 -34.1741 -29.2921 -26.8511 -24.4101 -21.9691 -17.0871 -14.6461 -17.0871 -19.5281 -21.9691 -21.9691 -21.9691 -24.4101 -29.2921 -31.7331 -31.7331 -34.1741 -34.1741 -34.1741 -24.4101 -17.0871 -11.3914 -6.50936 -4.06835 -4.06835 -4.06835 -6.50936 -8.95037 -8.95037 -8.95037 -4.06835 -1.62734 -1.62734 0.81367 -4.06835 -6.50936 -14.6461 -17.0871 -19.5281 -21.9691 -24.4101 -26.8511 -19.5281 -14.6461 -14.6461 -14.6461 -14.6461 -11.3914 -11.3914 -11.3914 -6.50936 -6.50936 -8.95037 -14.6461 -17.0871 -24.4101 -36.6152 -43.9382 -43.9382 -41.4972 -39.0562 -41.4972 -43.9382 -46.3792 -58.5842 -70.7893 -75.6713 -73.2303 -70.7893 -65.9073 -56.1432 -48.8202 -41.4972 -46.3792 -56.1432 -65.9073 -73.2303 -78.1123 -78.1123 -78.1123 -75.6713 -70.7893 -65.9073 -63.4663 -65.9073 -70.7893 -73.2303 -75.6713 -73.2303 -65.9073 -61.0252 -56.1432 -48.8202 -46.3792 -48.8202 -56.1432 -61.0252 -63.4663 -61.0252 -58.5842 -56.1432 -53.7022 -51.2612 -51.2612 -48.8202 -46.3792 -41.4972 -29.2921 -11.3914 15.4597 49.6339 86.249 137.51 198.535 264.443 335.232 410.903 491.457 572.01 640.358 696.502 740.44 762.409 757.527 725.794 662.327 574.451 471.929 362.083 247.356 142.392 52.0749 -14.6461 -63.4663 -97.6404 -114.727 -122.05 -124.492 -119.609 -112.286 -102.522 -92.7584 -87.8764 -82.9943 -75.6713 -73.2303 -75.6713 -75.6713 -70.7893 -68.3483 -63.4663 -58.5842 -51.2612 -51.2612 -56.1432 -61.0252 -63.4663 -63.4663 -65.9073 -65.9073 -61.0252 -56.1432 -56.1432 -56.1432 -58.5842 -61.0252 -65.9073 -68.3483 -65.9073 -58.5842 -56.1432 -51.2612 -46.3792 -46.3792 -53.7022 -61.0252 -63.4663 -65.9073 -68.3483 -63.4663 -56.1432 -51.2612 -51.2612 -51.2612 -46.3792 -46.3792 -48.8202 -48.8202 -48.8202 -43.9382 -43.9382 -41.4972 -36.6152 -36.6152 -39.0562 -39.0562 -39.0562 -41.4972 -46.3792 -48.8202 -46.3792 -41.4972 -34.1741 -29.2921 -29.2921 -31.7331 -31.7331 -29.2921 -34.1741 -36.6152 -31.7331 -24.4101 -19.5281 -17.0871 -17.0871 -19.5281 -24.4101 -21.9691 -19.5281 -17.0871 -11.3914 -6.50936 0.81367 3.25468 0.81367 3.25468 5.69569 8.1367 13.0187 17.9007 25.2238 27.6648 27.6648 27.6648 25.2238 25.2238 25.2238 32.5468 39.8698 47.1929 54.5159 56.9569 56.9569 56.9569 49.6339 47.1929 47.1929 49.6339 49.6339 49.6339 49.6339 49.6339 47.1929 44.7519 44.7519 52.0749 54.5159 54.5159 52.0749 52.0749 47.1929 42.3108 37.4288 34.9878 37.4288 37.4288 37.4288 27.6648 27.6648 25.2238 20.3417 15.4597 13.0187 10.5777 10.5777 8.1367 3.25468 0.81367 -1.62734 -1.62734 -4.06835 -6.50936 -6.50936 -8.95037 -8.95037 -11.3914 -14.6461 -17.0871 -19.5281 -19.5281 -19.5281 -19.5281 -17.0871 -19.5281 -19.5281 -19.5281 -17.0871 -19.5281 -21.9691 -19.5281 -17.0871 -17.0871 -17.0871 -19.5281 -21.9691 -21.9691 -26.8511 -34.1741 -36.6152 -36.6152 -36.6152 -39.0562 -39.0562 -36.6152 -36.6152 -36.6152 -36.6152 -36.6152 -36.6152 -36.6152 -34.1741 -31.7331 -29.2921 -29.2921 -29.2921 -29.2921 -31.7331 -31.7331 -31.7331 -31.7331 -31.7331 -29.2921 -29.2921 -31.7331 -34.1741 -34.1741 -36.6152 -39.0562 -41.4972 -43.9382 -43.9382 -41.4972 -41.4972 -41.4972 -41.4972 -39.0562 -36.6152 -39.0562 -36.6152 -36.6152 -36.6152 -36.6152 -39.0562 -39.0562 -41.4972 -43.9382 -43.9382 -43.9382 -41.4972 -36.6152 -36.6152 -34.1741 -31.7331 -26.8511 -26.8511 -26.8511 -21.9691 -21.9691 -21.9691 -21.9691 -24.4101 -24.4101 -26.8511 -26.8511 -21.9691 -17.0871 -17.0871 -17.0871 -17.0871 -17.0871 -19.5281 -24.4101 -29.2921 -31.7331 -26.8511 -26.8511 -26.8511 -26.8511 -24.4101 -17.0871 -17.0871 -19.5281 -21.9691 -19.5281 -14.6461 -11.3914 -14.6461 -14.6461 -8.95037 -6.50936 -11.3914 -14.6461 -14.6461 -11.3914 -6.50936 -1.62734 5.69569 5.69569 5.69569 3.25468 -4.06835 -6.50936 -11.3914 -11.3914 -4.06835 0.81367 5.69569 5.69569 3.25468 3.25468 -1.62734 -8.95037 -14.6461 -11.3914 -8.95037 -6.50936 -4.06835 -4.06835 -6.50936 -11.3914 -14.6461 -21.9691 -34.1741 -41.4972 -46.3792 -46.3792 -46.3792 -46.3792 -48.8202 -48.8202 -51.2612 -56.1432 -61.0252 -63.4663 -65.9073 -65.9073 -65.9073 -65.9073 -65.9073 -65.9073 -65.9073 -65.9073 -68.3483 -68.3483 -68.3483 -63.4663 -65.9073 -68.3483 -68.3483 -68.3483 -68.3483 -70.7893 -70.7893 -68.3483 -61.0252 -61.0252 -56.1432 -56.1432 -58.5842 -56.1432 -58.5842 -58.5842 -61.0252 -65.9073 -65.9073 -63.4663 -56.1432 -48.8202 -46.3792 -41.4972 -34.1741 -29.2921 -24.4101 -17.0871 0.81367 32.5468 69.1619 110.659 159.479 220.505 286.412 359.642 432.872 508.544 579.333 637.917 681.855 701.384 696.502 664.768 601.302 515.867 413.344 308.381 203.417 105.777 30.1058 -29.2921 -73.2303 -104.963 -124.492 -131.815 -134.256 -129.374 -117.168 -104.963 -92.7584 -85.4353 -78.1123 -70.7893 -70.7893 -70.7893 -70.7893 -68.3483 -68.3483 -68.3483 -68.3483 -68.3483 -68.3483 -65.9073 -63.4663 -63.4663 -65.9073 -61.0252 -56.1432 43.1245 43.1245 40.6835 40.6835 38.2425 43.1245 50.4475 55.3296 60.2116 65.0936 65.0936 65.0936 62.6526 57.7706 48.0065 43.1245 38.2425 38.2425 33.3605 30.9195 26.0374 26.0374 23.5964 21.1554 16.2734 16.2734 16.2734 21.1554 23.5964 23.5964 23.5964 26.0374 26.0374 30.9195 33.3605 35.8015 38.2425 35.8015 30.9195 30.9195 28.4785 26.0374 23.5964 18.7144 16.2734 11.3914 6.50936 0.81367 0.81367 -4.06835 -4.06835 -6.50936 -6.50936 -11.3914 -18.7144 -18.7144 -16.2734 -13.8324 -16.2734 -18.7144 -18.7144 -23.5964 -26.0374 -28.4785 -28.4785 -26.0374 -23.5964 -21.1554 -18.7144 -18.7144 -18.7144 -18.7144 -18.7144 -21.1554 -21.1554 -18.7144 -16.2734 -16.2734 -16.2734 -16.2734 -16.2734 -18.7144 -21.1554 -21.1554 -21.1554 -23.5964 -26.0374 -26.0374 -23.5964 -16.2734 -16.2734 -18.7144 -28.4785 -35.8015 -48.0065 -60.2116 -74.8576 -84.6217 -89.5037 -94.3857 -109.032 -135.883 -172.498 -221.318 -284.784 -343.369 -401.953 -450.773 -487.388 -504.475 -504.475 -489.829 -462.978 -426.363 -389.748 -345.81 -299.431 -255.492 -216.436 -177.38 -138.324 -104.15 -77.2987 -55.3296 -35.8015 -21.1554 -11.3914 -6.50936 -1.62734 0.81367 0.81367 0.81367 0.81367 0.81367 -1.62734 -1.62734 0.81367 0.81367 0.81367 6.50936 11.3914 13.8324 18.7144 21.1554 21.1554 21.1554 18.7144 18.7144 16.2734 13.8324 13.8324 13.8324 16.2734 16.2734 16.2734 13.8324 13.8324 11.3914 8.95037 8.95037 8.95037 11.3914 11.3914 16.2734 21.1554 21.1554 21.1554 21.1554 23.5964 21.1554 18.7144 16.2734 13.8324 13.8324 11.3914 8.95037 11.3914 13.8324 16.2734 18.7144 23.5964 28.4785 30.9195 30.9195 30.9195 30.9195 30.9195 28.4785 26.0374 23.5964 23.5964 21.1554 21.1554 23.5964 23.5964 30.9195 38.2425 40.6835 43.1245 43.1245 48.0065 50.4475 43.1245 43.1245 43.1245 45.5655 43.1245 40.6835 38.2425 38.2425 38.2425 35.8015 35.8015 40.6835 45.5655 45.5655 48.0065 48.0065 50.4475 52.8885 52.8885 50.4475 50.4475 52.8885 52.8885 48.0065 45.5655 43.1245 40.6835 40.6835 45.5655 48.0065 48.0065 52.8885 60.2116 65.0936 67.5346 69.9756 72.4166 72.4166 72.4166 67.5346 62.6526 60.2116 57.7706 55.3296 52.8885 52.8885 45.5655 43.1245 43.1245 43.1245 43.1245 45.5655 50.4475 52.8885 52.8885 52.8885 50.4475 48.0065 43.1245 40.6835 40.6835 40.6835 38.2425 38.2425 35.8015 35.8015 35.8015 35.8015 35.8015 35.8015 33.3605 33.3605 33.3605 28.4785 28.4785 30.9195 33.3605 33.3605 35.8015 40.6835 40.6835 33.3605 28.4785 26.0374 26.0374 26.0374 26.0374 26.0374 30.9195 30.9195 28.4785 23.5964 23.5964 23.5964 23.5964 23.5964 28.4785 28.4785 28.4785 30.9195 33.3605 33.3605 30.9195 30.9195 33.3605 35.8015 35.8015 35.8015 35.8015 38.2425 35.8015 30.9195 28.4785 28.4785 28.4785 26.0374 23.5964 26.0374 26.0374 26.0374 26.0374 26.0374 23.5964 18.7144 16.2734 13.8324 13.8324 16.2734 16.2734 21.1554 23.5964 26.0374 26.0374 18.7144 16.2734 16.2734 13.8324 11.3914 13.8324 16.2734 16.2734 16.2734 18.7144 21.1554 23.5964 18.7144 18.7144 18.7144 18.7144 13.8324 13.8324 13.8324 13.8324 13.8324 11.3914 11.3914 13.8324 11.3914 4.06835 0.81367 0.81367 4.06835 8.95037 13.8324 21.1554 28.4785 38.2425 43.1245 43.1245 45.5655 43.1245 43.1245 40.6835 38.2425 40.6835 45.5655 52.8885 60.2116 69.9756 79.7397 82.1807 82.1807 79.7397 74.8576 67.5346 62.6526 57.7706 52.8885 48.0065 43.1245 40.6835 35.8015 35.8015 33.3605 30.9195 30.9195 28.4785 30.9195 30.9195 30.9195 35.8015 35.8015 35.8015 35.8015 38.2425 38.2425 38.2425 40.6835 40.6835 40.6835 38.2425 35.8015 35.8015 30.9195 26.0374 23.5964 18.7144 13.8324 8.95037 0.81367 0.81367 0.81367 0.81367 0.81367 -6.50936 -8.95037 -8.95037 -11.3914 -16.2734 -18.7144 -16.2734 -13.8324 -13.8324 -16.2734 -16.2734 -16.2734 -21.1554 -23.5964 -23.5964 -18.7144 -18.7144 -21.1554 -23.5964 -23.5964 -21.1554 -26.0374 -28.4785 -30.9195 -23.5964 -18.7144 -18.7144 -18.7144 -16.2734 -13.8324 -16.2734 -18.7144 -23.5964 -23.5964 -23.5964 -23.5964 -28.4785 -33.3605 -38.2425 -43.1245 -48.0065 -55.3296 -62.6526 -67.5346 -74.8576 -82.1807 -94.3857 -118.796 -150.529 -194.467 -250.61 -309.195 -370.22 -426.363 -470.301 -499.593 -509.357 -504.475 -484.947 -455.655 -414.158 -365.338 -316.518 -267.697 -221.318 -177.38 -140.765 -106.591 -77.2987 -55.3296 -40.6835 -26.0374 -13.8324 -6.50936 -1.62734 -1.62734 -1.62734 -1.62734 -1.62734 -1.62734 -1.62734 -4.06835 -1.62734 0.81367 8.95037 13.8324 13.8324 16.2734 18.7144 18.7144 13.8324 6.50936 6.50936 6.50936 6.50936 8.95037 13.8324 18.7144 21.1554 21.1554 21.1554 18.7144 16.2734 16.2734 16.2734 16.2734 16.2734 16.2734 11.3914 8.95037 8.95037 11.3914 11.3914 11.3914 16.2734 23.5964 26.0374 26.0374 26.0374 26.0374 28.4785 28.4785 26.0374 23.5964 23.5964 21.1554 18.7144 16.2734 16.2734 16.2734 16.2734 21.1554 23.5964 28.4785 33.3605 35.8015 38.2425 38.2425 38.2425 33.3605 33.3605 35.8015 35.8015 35.8015 33.3605 33.3605 35.8015 35.8015 35.8015 33.3605 33.3605 38.2425 40.6835 40.6835 38.2425 38.2425 43.1245 45.5655 45.5655 43.1245 43.1245 40.6835 38.2425 43.1245 45.5655 45.5655 50.4475 50.4475 55.3296 52.8885 50.4475 50.4475 48.0065 45.5655 45.5655 43.1245 40.6835 43.1245 40.6835 38.2425 40.6835 45.5655 45.5655 48.0065 52.8885 57.7706 57.7706 57.7706 57.7706 57.7706 55.3296 52.8885 52.8885 55.3296 57.7706 57.7706 57.7706 55.3296 55.3296 55.3296 57.7706 52.8885 48.0065 43.1245 40.6835 40.6835 38.2425 43.1245 45.5655 45.5655 43.1245 40.6835 40.6835 40.6835 38.2425 38.2425 40.6835 43.1245 43.1245 38.2425 35.8015 33.3605 30.9195 28.4785 30.9195 33.3605 33.3605 35.8015 33.3605 33.3605 35.8015 38.2425 38.2425 35.8015 33.3605 33.3605 28.4785 26.0374 21.1554 21.1554 21.1554 21.1554 23.5964 26.0374 28.4785 28.4785 28.4785 30.9195 35.8015 30.9195 30.9195 26.0374 26.0374 26.0374 23.5964 23.5964 26.0374 28.4785 30.9195 26.0374 23.5964 26.0374 28.4785 30.9195 33.3605 30.9195 30.9195 30.9195 28.4785 21.1554 18.7144 21.1554 26.0374 26.0374 26.0374 26.0374 26.0374 23.5964 21.1554 21.1554 18.7144 16.2734 16.2734 16.2734 16.2734 16.2734 13.8324 13.8324 16.2734 16.2734 16.2734 18.7144 21.1554 23.5964 26.0374 23.5964 18.7144 16.2734 13.8324 8.95037 8.95037 13.8324 16.2734 16.2734 13.8324 13.8324 8.95037 0.81367 -1.62734 -1.62734 0.81367 0.81367 4.06835 8.95037 13.8324 16.2734 18.7144 23.5964 23.5964 23.5964 26.0374 30.9195 35.8015 40.6835 45.5655 52.8885 57.7706 62.6526 62.6526 62.6526 57.7706 57.7706 52.8885 48.0065 45.5655 43.1245 38.2425 33.3605 30.9195 28.4785 26.0374 18.7144 16.2734 16.2734 18.7144 21.1554 21.1554 21.1554 23.5964 23.5964 26.0374 26.0374 28.4785 30.9195 33.3605 38.2425 38.2425 35.8015 30.9195 26.0374 21.1554 16.2734 11.3914 6.50936 6.50936 0.81367 -1.62734 -6.50936 -11.3914 -18.7144 -23.5964 -23.5964 -26.0374 -23.5964 -21.1554 -16.2734 -11.3914 -8.95037 -8.95037 -11.3914 -8.95037 -11.3914 -8.95037 -11.3914 -13.8324 -16.2734 -16.2734 -21.1554 -26.0374 -28.4785 -28.4785 -30.9195 -30.9195 -30.9195 -30.9195 -28.4785 -28.4785 -26.0374 -23.5964 -21.1554 -21.1554 -23.5964 -26.0374 -28.4785 -23.5964 -23.5964 -28.4785 -28.4785 -26.0374 -26.0374 -35.8015 -50.4475 -57.7706 -65.0936 -77.2987 -87.0627 -94.3857 -104.15 -116.355 -138.324 -165.175 -209.113 -262.815 -318.959 -372.661 -421.481 -460.537 -482.506 -484.947 -477.624 -458.096 -423.922 -387.307 -345.81 -299.431 -257.933 -218.877 -184.703 -150.529 -123.678 -99.2677 -82.1807 -62.6526 -48.0065 -33.3605 -23.5964 -13.8324 -6.50936 -4.06835 -1.62734 0.81367 -1.62734 -4.06835 -1.62734 -1.62734 0.81367 0.81367 6.50936 8.95037 6.50936 4.06835 6.50936 8.95037 8.95037 8.95037 11.3914 11.3914 8.95037 11.3914 13.8324 16.2734 18.7144 18.7144 18.7144 16.2734 16.2734 13.8324 11.3914 11.3914 11.3914 11.3914 11.3914 11.3914 11.3914 16.2734 18.7144 21.1554 23.5964 26.0374 26.0374 26.0374 26.0374 21.1554 21.1554 21.1554 18.7144 18.7144 16.2734 18.7144 21.1554 18.7144 18.7144 18.7144 18.7144 18.7144 21.1554 23.5964 26.0374 30.9195 33.3605 33.3605 30.9195 28.4785 26.0374 28.4785 33.3605 40.6835 45.5655 48.0065 48.0065 48.0065 45.5655 43.1245 43.1245 43.1245 43.1245 45.5655 45.5655 45.5655 40.6835 35.8015 38.2425 43.1245 45.5655 43.1245 43.1245 43.1245 43.1245 40.6835 33.3605 33.3605 43.1245 48.0065 48.0065 48.0065 50.4475 52.8885 50.4475 50.4475 50.4475 52.8885 55.3296 57.7706 60.2116 62.6526 67.5346 69.9756 69.9756 67.5346 72.4166 72.4166 72.4166 72.4166 74.8576 77.2987 74.8576 72.4166 69.9756 65.0936 60.2116 57.7706 57.7706 60.2116 60.2116 60.2116 60.2116 62.6526 62.6526 60.2116 55.3296 55.3296 57.7706 57.7706 57.7706 57.7706 62.6526 62.6526 62.6526 57.7706 55.3296 55.3296 50.4475 48.0065 45.5655 45.5655 45.5655 48.0065 48.0065 52.8885 55.3296 55.3296 55.3296 52.8885 52.8885 52.8885 50.4475 50.4475 52.8885 52.8885 45.5655 43.1245 40.6835 40.6835 40.6835 43.1245 45.5655 48.0065 48.0065 48.0065 48.0065 48.0065 45.5655 45.5655 50.4475 50.4475 57.7706 57.7706 57.7706 57.7706 52.8885 48.0065 43.1245 40.6835 38.2425 38.2425 40.6835 45.5655 48.0065 48.0065 43.1245 38.2425 35.8015 28.4785 23.5964 26.0374 26.0374 28.4785 33.3605 35.8015 35.8015 33.3605 33.3605 33.3605 28.4785 26.0374 28.4785 30.9195 33.3605 33.3605 28.4785 28.4785 23.5964 18.7144 18.7144 21.1554 26.0374 26.0374 21.1554 16.2734 16.2734 13.8324 6.50936 4.06835 6.50936 11.3914 13.8324 8.95037 6.50936 6.50936 4.06835 4.06835 4.06835 4.06835 4.06835 6.50936 6.50936 6.50936 13.8324 18.7144 23.5964 28.4785 33.3605 38.2425 40.6835 40.6835 40.6835 43.1245 45.5655 52.8885 57.7706 60.2116 60.2116 60.2116 57.7706 55.3296 50.4475 40.6835 35.8015 33.3605 33.3605 28.4785 26.0374 26.0374 21.1554 16.2734 8.95037 6.50936 11.3914 11.3914 11.3914 16.2734 21.1554 26.0374 28.4785 26.0374 26.0374 30.9195 33.3605 33.3605 30.9195 28.4785 26.0374 21.1554 16.2734 6.50936 -1.62734 -6.50936 -13.8324 -21.1554 -26.0374 -28.4785 -28.4785 -33.3605 -35.8015 -33.3605 -28.4785 -28.4785 -26.0374 -23.5964 -23.5964 -23.5964 -28.4785 -30.9195 -33.3605 -35.8015 -40.6835 -40.6835 -40.6835 -38.2425 -38.2425 -38.2425 -33.3605 -30.9195 -30.9195 -30.9195 -26.0374 -26.0374 -30.9195 -35.8015 -38.2425 -40.6835 -45.5655 -48.0065 -48.0065 -43.1245 -38.2425 -38.2425 -38.2425 -40.6835 -43.1245 -45.5655 -50.4475 -55.3296 -62.6526 -67.5346 -74.8576 -84.6217 -87.0627 -89.5037 -96.8267 -106.591 -121.237 -143.206 -182.262 -228.641 -282.343 -336.046 -392.189 -438.568 -470.301 -489.829 -492.27 -482.506 -458.096 -423.922 -382.425 -340.928 -296.99 -255.492 -221.318 -187.144 -157.852 -131.001 -104.15 -79.7397 -62.6526 -48.0065 -35.8015 -28.4785 -21.1554 -23.5964 -18.7144 -16.2734 -13.8324 -13.8324 -13.8324 -16.2734 -13.8324 -13.8324 -13.8324 -13.8324 -8.95037 -6.50936 -8.95037 -8.95037 -4.06835 0.81367 0.81367 0.81367 0.81367 4.06835 4.06835 0.81367 -1.62734 0.81367 0.81367 -6.50936 -4.06835 0.81367 0.81367 4.06835 8.95037 16.2734 18.7144 16.2734 11.3914 8.95037 8.95037 11.3914 13.8324 13.8324 16.2734 16.2734 16.2734 13.8324 11.3914 8.95037 11.3914 11.3914 13.8324 13.8324 13.8324 13.8324 13.8324 16.2734 21.1554 23.5964 28.4785 30.9195 30.9195 30.9195 30.9195 30.9195 33.3605 33.3605 30.9195 33.3605 33.3605 33.3605 30.9195 28.4785 28.4785 28.4785 28.4785 30.9195 33.3605 35.8015 38.2425 38.2425 38.2425 38.2425 40.6835 43.1245 40.6835 40.6835 38.2425 33.3605 30.9195 26.0374 28.4785 33.3605 35.8015 38.2425 40.6835 45.5655 45.5655 43.1245 38.2425 40.6835 45.5655 43.1245 40.6835 40.6835 45.5655 48.0065 50.4475 52.8885 55.3296 57.7706 60.2116 60.2116 60.2116 60.2116 60.2116 62.6526 67.5346 67.5346 69.9756 69.9756 69.9756 67.5346 65.0936 60.2116 60.2116 57.7706 57.7706 57.7706 60.2116 57.7706 55.3296 52.8885 52.8885 50.4475 45.5655 40.6835 43.1245 48.0065 48.0065 48.0065 45.5655 48.0065 50.4475 50.4475 50.4475 50.4475 50.4475 50.4475 50.4475 48.0065 43.1245 38.2425 38.2425 38.2425 38.2425 38.2425 45.5655 50.4475 50.4475 48.0065 48.0065 48.0065 43.1245 38.2425 38.2425 43.1245 45.5655 48.0065 52.8885 52.8885 52.8885 48.0065 45.5655 43.1245 38.2425 35.8015 35.8015 35.8015 35.8015 35.8015 35.8015 33.3605 33.3605 33.3605 33.3605 35.8015 35.8015 35.8015 35.8015 35.8015 35.8015 35.8015 33.3605 28.4785 23.5964 18.7144 21.1554 23.5964 23.5964 28.4785 33.3605 35.8015 38.2425 35.8015 35.8015 35.8015 35.8015 35.8015 33.3605 28.4785 26.0374 23.5964 21.1554 21.1554 23.5964 26.0374 28.4785 28.4785 28.4785 23.5964 18.7144 13.8324 11.3914 11.3914 11.3914 13.8324 21.1554 23.5964 23.5964 23.5964 23.5964 23.5964 18.7144 13.8324 11.3914 8.95037 8.95037 6.50936 6.50936 16.2734 23.5964 26.0374 30.9195 33.3605 43.1245 45.5655 43.1245 40.6835 43.1245 48.0065 50.4475 50.4475 52.8885 60.2116 69.9756 72.4166 72.4166 72.4166 74.8576 74.8576 67.5346 57.7706 45.5655 38.2425 30.9195 23.5964 13.8324 13.8324 13.8324 13.8324 11.3914 11.3914 13.8324 13.8324 16.2734 23.5964 28.4785 35.8015 43.1245 48.0065 50.4475 48.0065 45.5655 38.2425 28.4785 21.1554 21.1554 18.7144 16.2734 16.2734 18.7144 16.2734 8.95037 0.81367 -1.62734 -6.50936 -11.3914 -18.7144 -18.7144 -18.7144 -18.7144 -18.7144 -21.1554 -16.2734 -11.3914 -8.95037 -8.95037 -8.95037 -8.95037 -8.95037 -13.8324 -18.7144 -21.1554 -23.5964 -23.5964 -23.5964 -23.5964 -21.1554 -16.2734 -13.8324 -13.8324 -8.95037 -6.50936 -6.50936 -4.06835 -6.50936 -11.3914 -16.2734 -21.1554 -21.1554 -23.5964 -23.5964 -21.1554 -21.1554 -23.5964 -23.5964 -23.5964 -28.4785 -33.3605 -40.6835 -48.0065 -55.3296 -60.2116 -65.0936 -77.2987 -96.8267 -123.678 -167.616 -226.2 -287.226 -353.133 -411.717 -455.655 -484.947 -497.152 -494.711 -480.065 -455.655 -421.481 -384.866 -338.487 -292.108 -248.169 -206.672 -167.616 -131.001 -96.8267 -74.8576 -57.7706 -38.2425 -23.5964 -11.3914 -6.50936 0.81367 6.50936 8.95037 6.50936 6.50936 4.06835 4.06835 4.06835 6.50936 8.95037 8.95037 8.95037 8.95037 6.50936 6.50936 8.95037 11.3914 16.2734 18.7144 23.5964 26.0374 26.0374 26.0374 21.1554 21.1554 18.7144 21.1554 21.1554 21.1554 23.5964 26.0374 28.4785 30.9195 26.0374 21.1554 21.1554 23.5964 23.5964 21.1554 21.1554 28.4785 35.8015 38.2425 40.6835 43.1245 45.5655 45.5655 38.2425 35.8015 33.3605 33.3605 33.3605 35.8015 43.1245 48.0065 48.0065 48.0065 48.0065 43.1245 40.6835 40.6835 40.6835 38.2425 38.2425 38.2425 38.2425 40.6835 40.6835 43.1245 48.0065 50.4475 55.3296 55.3296 57.7706 57.7706 55.3296 52.8885 52.8885 55.3296 57.7706 57.7706 57.7706 57.7706 57.7706 55.3296 52.8885 50.4475 50.4475 50.4475 50.4475 52.8885 52.8885 52.8885 57.7706 57.7706 62.6526 65.0936 65.0936 65.0936 65.0936 65.0936 65.0936 60.2116 60.2116 60.2116 60.2116 57.7706 57.7706 55.3296 57.7706 60.2116 62.6526 65.0936 67.5346 67.5346 69.9756 69.9756 72.4166 69.9756 67.5346 65.0936 62.6526 57.7706 55.3296 57.7706 60.2116 65.0936 65.0936 65.0936 65.0936 65.0936 65.0936 60.2116 57.7706 57.7706 57.7706 55.3296 52.8885 50.4475 50.4475 48.0065 45.5655 45.5655 48.0065 50.4475 52.8885 52.8885 52.8885 52.8885 52.8885 52.8885 50.4475 50.4475 50.4475 50.4475 45.5655 43.1245 43.1245 40.6835 40.6835 40.6835 38.2425 43.1245 45.5655 45.5655 45.5655 48.0065 52.8885 50.4475 50.4475 50.4475 48.0065 48.0065 48.0065 48.0065 48.0065 48.0065 50.4475 48.0065 45.5655 40.6835 38.2425 33.3605 33.3605 35.8015 40.6835 48.0065 50.4475 50.4475 50.4475 45.5655 43.1245 40.6835 40.6835 40.6835 40.6835 40.6835 43.1245 45.5655 40.6835 35.8015 33.3605 33.3605 33.3605 33.3605 35.8015 35.8015 40.6835 43.1245 43.1245 38.2425 28.4785 26.0374 21.1554 21.1554 18.7144 23.5964 28.4785 33.3605 35.8015 35.8015 30.9195 26.0374 21.1554 21.1554 16.2734 16.2734 18.7144 21.1554 21.1554 21.1554 18.7144 18.7144 18.7144 18.7144 23.5964 26.0374 28.4785 30.9195 30.9195 33.3605 35.8015 33.3605 33.3605 38.2425 40.6835 45.5655 48.0065 48.0065 48.0065 48.0065 50.4475 52.8885 60.2116 69.9756 72.4166 72.4166 69.9756 69.9756 62.6526 52.8885 45.5655 40.6835 38.2425 33.3605 28.4785 26.0374 21.1554 18.7144 16.2734 13.8324 16.2734 18.7144 26.0374 30.9195 35.8015 40.6835 45.5655 48.0065 48.0065 43.1245 40.6835 38.2425 33.3605 28.4785 26.0374 23.5964 21.1554 16.2734 11.3914 4.06835 0.81367 -4.06835 -4.06835 -4.06835 -4.06835 -8.95037 -11.3914 -13.8324 -16.2734 -18.7144 -21.1554 -18.7144 -13.8324 -13.8324 -13.8324 -13.8324 -13.8324 -16.2734 -16.2734 -16.2734 -16.2734 -18.7144 -21.1554 -21.1554 -23.5964 -23.5964 -23.5964 -21.1554 -18.7144 -18.7144 -16.2734 -16.2734 -16.2734 -18.7144 -23.5964 -23.5964 -23.5964 -26.0374 -26.0374 -26.0374 -23.5964 -21.1554 -18.7144 -16.2734 -18.7144 -26.0374 -35.8015 -48.0065 -60.2116 -74.8576 -82.1807 -91.9447 -99.2677 -109.032 -128.56 -157.852 -206.672 -265.256 -328.723 -387.307 -441.009 -480.065 -504.475 -509.357 -499.593 -480.065 -448.332 -409.276 -367.779 -318.959 -272.579 -231.082 -192.026 -160.293 -133.442 -106.591 -82.1807 -65.0936 -48.0065 -35.8015 -21.1554 -11.3914 -6.50936 -1.62734 -1.62734 0.81367 8.95037 8.95037 4.06835 4.06835 6.50936 6.50936 4.06835 -1.62734 -1.62734 0.81367 0.81367 4.06835 6.50936 6.50936 8.95037 11.3914 11.3914 11.3914 8.95037 8.95037 8.95037 6.50936 6.50936 6.50936 8.95037 11.3914 13.8324 13.8324 13.8324 13.8324 13.8324 11.3914 8.95037 8.95037 8.95037 8.95037 8.95037 8.95037 13.8324 13.8324 16.2734 18.7144 21.1554 23.5964 26.0374 28.4785 33.3605 30.9195 28.4785 28.4785 28.4785 23.5964 23.5964 26.0374 26.0374 28.4785 26.0374 26.0374 26.0374 28.4785 28.4785 26.0374 30.9195 35.8015 35.8015 30.9195 30.9195 33.3605 35.8015 30.9195 30.9195 35.8015 35.8015 35.8015 30.9195 30.9195 35.8015 38.2425 38.2425 40.6835 43.1245 45.5655 45.5655 43.1245 40.6835 45.5655 45.5655 40.6835 38.2425 33.3605 33.3605 28.4785 26.0374 26.0374 30.9195 40.6835 50.4475 57.7706 60.2116 62.6526 62.6526 62.6526 62.6526 60.2116 57.7706 57.7706 57.7706 52.8885 50.4475 50.4475 50.4475 50.4475 55.3296 57.7706 62.6526 65.0936 57.7706 55.3296 52.8885 48.0065 45.5655 43.1245 40.6835 40.6835 38.2425 38.2425 40.6835 35.8015 35.8015 40.6835 40.6835 35.8015 35.8015 35.8015 33.3605 28.4785 28.4785 26.0374 26.0374 26.0374 26.0374 30.9195 35.8015 38.2425 40.6835 40.6835 43.1245 40.6835 43.1245 43.1245 40.6835 35.8015 33.3605 35.8015 35.8015 28.4785 28.4785 30.9195 35.8015 35.8015 35.8015 35.8015 35.8015 33.3605 30.9195 28.4785 23.5964 23.5964 23.5964 21.1554 18.7144 21.1554 23.5964 23.5964 23.5964 26.0374 30.9195 35.8015 35.8015 38.2425 35.8015 33.3605 28.4785 26.0374 23.5964 23.5964 23.5964 26.0374 28.4785 26.0374 23.5964 23.5964 26.0374 23.5964 23.5964 26.0374 30.9195 33.3605 30.9195 30.9195 28.4785 26.0374 23.5964 21.1554 16.2734 16.2734 16.2734 13.8324 11.3914 8.95037 11.3914 13.8324 13.8324 13.8324 16.2734 16.2734 16.2734 13.8324 13.8324 11.3914 6.50936 4.06835 0.81367 -1.62734 -4.06835 -6.50936 -4.06835 -4.06835 -1.62734 0.81367 4.06835 4.06835 0.81367 0.81367 4.06835 6.50936 11.3914 18.7144 23.5964 30.9195 35.8015 35.8015 33.3605 33.3605 30.9195 30.9195 33.3605 38.2425 45.5655 48.0065 50.4475 50.4475 48.0065 48.0065 43.1245 38.2425 35.8015 33.3605 30.9195 28.4785 26.0374 21.1554 16.2734 11.3914 6.50936 0.81367 -1.62734 0.81367 6.50936 13.8324 18.7144 26.0374 30.9195 33.3605 30.9195 28.4785 23.5964 21.1554 21.1554 21.1554 18.7144 13.8324 8.95037 4.06835 -1.62734 -11.3914 -16.2734 -21.1554 -26.0374 -23.5964 -23.5964 -21.1554 -18.7144 -18.7144 -16.2734 -16.2734 -18.7144 -18.7144 -21.1554 -23.5964 -23.5964 -23.5964 -21.1554 -21.1554 -21.1554 -18.7144 -16.2734 -16.2734 -21.1554 -21.1554 -21.1554 -26.0374 -33.3605 -35.8015 -35.8015 -38.2425 -40.6835 -35.8015 -28.4785 -21.1554 -18.7144 -18.7144 -16.2734 -16.2734 -21.1554 -26.0374 -28.4785 -26.0374 -21.1554 -18.7144 -18.7144 -23.5964 -28.4785 -38.2425 -48.0065 -57.7706 -67.5346 -74.8576 -82.1807 -91.9447 -104.15 -126.119 -162.734 -209.113 -262.815 -318.959 -375.102 -428.804 -465.419 -487.388 -492.27 -482.506 -462.978 -428.804 -389.748 -343.369 -294.549 -243.287 -201.79 -162.734 -123.678 -91.9447 -67.5346 -48.0065 -30.9195 -18.7144 -11.3914 -8.95037 -4.06835 -1.62734 0.81367 0.81367 0.81367 6.50936 11.3914 13.8324 13.8324 13.8324 13.8324 18.7144 23.5964 23.5964 21.1554 26.0374 28.4785 30.9195 30.9195 23.5964 23.5964 28.4785 28.4785 28.4785 28.4785 28.4785 28.4785 28.4785 28.4785 26.0374 28.4785 28.4785 30.9195 30.9195 30.9195 30.9195 30.9195 28.4785 30.9195 30.9195 30.9195 30.9195 28.4785 28.4785 26.0374 26.0374 28.4785 30.9195 35.8015 38.2425 35.8015 35.8015 38.2425 40.6835 40.6835 38.2425 38.2425 43.1245 43.1245 43.1245 43.1245 45.5655 48.0065 48.0065 45.5655 45.5655 48.0065 50.4475 52.8885 52.8885 52.8885 52.8885 48.0065 48.0065 45.5655 45.5655 45.5655 48.0065 52.8885 52.8885 50.4475 48.0065 48.0065 48.0065 48.0065 50.4475 55.3296 57.7706 57.7706 57.7706 57.7706 55.3296 50.4475 50.4475 50.4475 50.4475 48.0065 50.4475 50.4475 52.8885 52.8885 57.7706 60.2116 60.2116 57.7706 57.7706 57.7706 57.7706 57.7706 57.7706 55.3296 55.3296 55.3296 50.4475 50.4475 52.8885 57.7706 62.6526 69.9756 77.2987 82.1807 84.6217 79.7397 77.2987 72.4166 65.0936 57.7706 50.4475 48.0065 50.4475 50.4475 50.4475 50.4475 50.4475 45.5655 40.6835 35.8015 33.3605 33.3605 33.3605 35.8015 35.8015 38.2425 43.1245 43.1245 43.1245 43.1245 40.6835 40.6835 40.6835 40.6835 40.6835 40.6835 38.2425 40.6835 40.6835 38.2425 38.2425 38.2425 40.6835 43.1245 45.5655 45.5655 45.5655 45.5655 43.1245 38.2425 35.8015 38.2425 43.1245 43.1245 43.1245 40.6835 38.2425 35.8015 35.8015 35.8015 35.8015 38.2425 38.2425 40.6835 38.2425 30.9195 28.4785 28.4785 30.9195 30.9195 30.9195 28.4785 28.4785 26.0374 21.1554 18.7144 13.8324 13.8324 18.7144 21.1554 18.7144 18.7144 23.5964 26.0374 26.0374 23.5964 23.5964 23.5964 21.1554 16.2734 13.8324 8.95037 8.95037 8.95037 11.3914 11.3914 6.50936 6.50936 8.95037 8.95037 8.95037 13.8324 18.7144 18.7144 18.7144 18.7144 18.7144 13.8324 6.50936 4.06835 4.06835 6.50936 6.50936 4.06835 0.81367 4.06835 4.06835 0.81367 0.81367 0.81367 0.81367 0.81367 0.81367 0.81367 6.50936 11.3914 13.8324 21.1554 28.4785 33.3605 33.3605 33.3605 38.2425 43.1245 48.0065 50.4475 52.8885 52.8885 52.8885 52.8885 50.4475 45.5655 40.6835 40.6835 40.6835 35.8015 33.3605 30.9195 28.4785 21.1554 16.2734 13.8324 11.3914 8.95037 8.95037 11.3914 11.3914 13.8324 16.2734 18.7144 18.7144 18.7144 23.5964 28.4785 30.9195 33.3605 33.3605 33.3605 28.4785 23.5964 16.2734 8.95037 0.81367 -1.62734 -6.50936 -11.3914 -16.2734 -18.7144 -23.5964 -26.0374 -30.9195 -30.9195 -28.4785 -28.4785 -26.0374 -23.5964 -16.2734 -13.8324 -16.2734 -21.1554 -23.5964 -26.0374 -30.9195 -33.3605 -33.3605 -28.4785 -23.5964 -26.0374 -28.4785 -30.9195 -35.8015 -35.8015 -40.6835 -40.6835 -35.8015 -33.3605 -33.3605 -33.3605 -35.8015 -35.8015 -35.8015 -35.8015 -35.8015 -35.8015 -33.3605 -30.9195 -28.4785 -30.9195 -30.9195 -35.8015 -43.1245 -50.4475 -62.6526 -72.4166 -79.7397 -84.6217 -89.5037 -96.8267 -111.473 -131.001 -160.293 -204.231 -250.61 -309.195 -367.779 -416.599 -458.096 -487.388 -499.593 -499.593 -482.506 -455.655 -419.04 -377.543 -326.282 -277.461 -231.082 -189.585 -150.529 -116.355 -87.0627 -67.5346 -48.0065 -35.8015 -28.4785 -23.5964 -21.1554 -18.7144 -18.7144 -18.7144 -13.8324 -4.06835 0.81367 0.81367 0.81367 4.06835 6.50936 0.81367 0.81367 4.06835 6.50936 6.50936 8.95037 8.95037 8.95037 6.50936 0.81367 0.81367 4.06835 8.95037 11.3914 13.8324 18.7144 18.7144 16.2734 16.2734 16.2734 11.3914 6.50936 6.50936 6.50936 8.95037 11.3914 11.3914 11.3914 16.2734 18.7144 18.7144 11.3914 6.50936 4.06835 4.06835 6.50936 6.50936 11.3914 21.1554 26.0374 28.4785 30.9195 28.4785 26.0374 28.4785 26.0374 26.0374 28.4785 28.4785 28.4785 26.0374 21.1554 16.2734 13.8324 13.8324 18.7144 23.5964 30.9195 38.2425 38.2425 43.1245 45.5655 43.1245 33.3605 26.0374 26.0374 30.9195 26.0374 21.1554 23.5964 33.3605 35.8015 38.2425 38.2425 40.6835 40.6835 40.6835 40.6835 40.6835 35.8015 33.3605 35.8015 35.8015 33.3605 33.3605 33.3605 33.3605 30.9195 30.9195 33.3605 35.8015 38.2425 40.6835 43.1245 48.0065 55.3296 57.7706 60.2116 65.0936 69.9756 69.9756 65.0936 65.0936 62.6526 60.2116 55.3296 52.8885 57.7706 62.6526 62.6526 62.6526 67.5346 69.9756 69.9756 67.5346 65.0936 62.6526 62.6526 62.6526 60.2116 57.7706 52.8885 50.4475 45.5655 43.1245 43.1245 43.1245 45.5655 45.5655 45.5655 48.0065 45.5655 43.1245 38.2425 33.3605 30.9195 26.0374 23.5964 23.5964 23.5964 23.5964 28.4785 33.3605 33.3605 33.3605 38.2425 43.1245 45.5655 45.5655 48.0065 48.0065 45.5655 43.1245 35.8015 33.3605 33.3605 33.3605 35.8015 33.3605 33.3605 38.2425 40.6835 38.2425 35.8015 38.2425 43.1245 43.1245 40.6835 40.6835 40.6835 38.2425 35.8015 30.9195 30.9195 30.9195 30.9195 33.3605 35.8015 38.2425 38.2425 40.6835 40.6835 38.2425 40.6835 40.6835 40.6835 40.6835 38.2425 38.2425 35.8015 30.9195 26.0374 21.1554 21.1554 18.7144 16.2734 16.2734 21.1554 28.4785 30.9195 28.4785 23.5964 21.1554 16.2734 8.95037 4.06835 4.06835 6.50936 8.95037 8.95037 8.95037 11.3914 11.3914 8.95037 8.95037 11.3914 11.3914 6.50936 4.06835 4.06835 6.50936 8.95037 11.3914 13.8324 16.2734 23.5964 28.4785 28.4785 28.4785 28.4785 30.9195 28.4785 26.0374 23.5964 26.0374 28.4785 30.9195 35.8015 40.6835 45.5655 52.8885 60.2116 65.0936 69.9756 69.9756 69.9756 65.0936 57.7706 50.4475 45.5655 35.8015 28.4785 26.0374 23.5964 23.5964 18.7144 18.7144 21.1554 26.0374 23.5964 21.1554 18.7144 18.7144 21.1554 23.5964 28.4785 33.3605 40.6835 45.5655 45.5655 43.1245 40.6835 35.8015 28.4785 21.1554 13.8324 8.95037 4.06835 -4.06835 -6.50936 -8.95037 -11.3914 -13.8324 -16.2734 -16.2734 -16.2734 -21.1554 -23.5964 -23.5964 -23.5964 -21.1554 -16.2734 -16.2734 -16.2734 -13.8324 -13.8324 -18.7144 -23.5964 -26.0374 -26.0374 -30.9195 -33.3605 -33.3605 -33.3605 -33.3605 -33.3605 -30.9195 -28.4785 -28.4785 -28.4785 -28.4785 -28.4785 -28.4785 -28.4785 -30.9195 -33.3605 -35.8015 -35.8015 -35.8015 -35.8015 -35.8015 -38.2425 -38.2425 -40.6835 -43.1245 -52.8885 -60.2116 -67.5346 -69.9756 -79.7397 -84.6217 -84.6217 -84.6217 -94.3857 -111.473 -135.883 -170.057 -213.995 -272.579 -333.605 -392.189 -438.568 -475.183 -494.711 -497.152 -482.506 -455.655 -416.599 -375.102 -331.164 -284.784 -243.287 -201.79 -165.175 -133.442 -101.709 -77.2987 -60.2116 -45.5655 -35.8015 -28.4785 -23.5964 -23.5964 -21.1554 -16.2734 -13.8324 -13.8324 -13.8324 -13.8324 -8.95037 -8.95037 -4.06835 0.81367 0.81367 0.81367 -1.62734 -1.62734 0.81367 -1.62734 -1.62734 0.81367 6.50936 4.06835 0.81367 -1.62734 -1.62734 -1.62734 -1.62734 0.81367 4.06835 11.3914 13.8324 11.3914 6.50936 6.50936 6.50936 4.06835 0.81367 0.81367 0.81367 0.81367 0.81367 0.81367 4.06835 6.50936 11.3914 13.8324 13.8324 18.7144 21.1554 18.7144 21.1554 21.1554 18.7144 16.2734 13.8324 11.3914 11.3914 16.2734 23.5964 23.5964 23.5964 23.5964 23.5964 21.1554 18.7144 18.7144 18.7144 23.5964 28.4785 28.4785 28.4785 26.0374 23.5964 21.1554 18.7144 18.7144 18.7144 21.1554 23.5964 23.5964 26.0374 26.0374 28.4785 28.4785 28.4785 28.4785 28.4785 28.4785 26.0374 23.5964 21.1554 21.1554 26.0374 30.9195 35.8015 38.2425 40.6835 43.1245 43.1245 40.6835 38.2425 35.8015 30.9195 30.9195 30.9195 30.9195 33.3605 40.6835 48.0065 55.3296 55.3296 52.8885 50.4475 45.5655 45.5655 50.4475 57.7706 65.0936 65.0936 69.9756 69.9756 62.6526 55.3296 48.0065 45.5655 43.1245 43.1245 45.5655 48.0065 50.4475 55.3296 55.3296 52.8885 52.8885 50.4475 48.0065 45.5655 45.5655 45.5655 48.0065 48.0065 45.5655 40.6835 38.2425 38.2425 38.2425 38.2425 43.1245 45.5655 45.5655 45.5655 40.6835 33.3605 30.9195 30.9195 30.9195 30.9195 33.3605 35.8015 35.8015 38.2425 35.8015 35.8015 30.9195 30.9195 33.3605 35.8015 35.8015 38.2425 43.1245 48.0065 50.4475 48.0065 48.0065 45.5655 43.1245 35.8015 33.3605 30.9195 28.4785 28.4785 30.9195 33.3605 35.8015 35.8015 35.8015 35.8015 35.8015 35.8015 35.8015 33.3605 30.9195 26.0374 21.1554 21.1554 21.1554 21.1554 23.5964 28.4785 30.9195 30.9195 28.4785 28.4785 28.4785 26.0374 23.5964 21.1554 21.1554 18.7144 18.7144 21.1554 26.0374 26.0374 26.0374 28.4785 28.4785 26.0374 23.5964 21.1554 21.1554 21.1554 21.1554 21.1554 23.5964 26.0374 23.5964 23.5964 18.7144 16.2734 11.3914 11.3914 11.3914 11.3914 13.8324 23.5964 26.0374 26.0374 23.5964 23.5964 23.5964 21.1554 18.7144 18.7144 21.1554 23.5964 28.4785 33.3605 38.2425 38.2425 38.2425 40.6835 40.6835 43.1245 48.0065 55.3296 60.2116 60.2116 62.6526 65.0936 62.6526 57.7706 55.3296 55.3296 55.3296 50.4475 43.1245 38.2425 33.3605 28.4785 26.0374 26.0374 26.0374 26.0374 26.0374 28.4785 30.9195 30.9195 30.9195 33.3605 35.8015 40.6835 40.6835 40.6835 43.1245 40.6835 35.8015 28.4785 21.1554 18.7144 18.7144 18.7144 16.2734 16.2734 11.3914 8.95037 4.06835 0.81367 -1.62734 -4.06835 -6.50936 -6.50936 -6.50936 -11.3914 -16.2734 -16.2734 -18.7144 -18.7144 -18.7144 -18.7144 -18.7144 -23.5964 -23.5964 -23.5964 -21.1554 -18.7144 -16.2734 -13.8324 -11.3914 -13.8324 -13.8324 -18.7144 -21.1554 -21.1554 -23.5964 -21.1554 -18.7144 -18.7144 -18.7144 -18.7144 -18.7144 -16.2734 -13.8324 -16.2734 -16.2734 -16.2734 -18.7144 -18.7144 -18.7144 -21.1554 -30.9195 -38.2425 -45.5655 -52.8885 -65.0936 -69.9756 -74.8576 -84.6217 -104.15 -133.442 -177.38 -231.082 -294.549 -360.456 -419.04 -467.86 -499.593 -516.68 -514.239 -494.711 -465.419 -428.804 -382.425 -333.605 -289.667 -248.169 -211.554 -177.38 -145.647 -113.914 -84.6217 -62.6526 -43.1245 -28.4785 -18.7144 -13.8324 -11.3914 -8.95037 -4.06835 -4.06835 -4.06835 -1.62734 0.81367 0.81367 0.81367 0.81367 4.06835 6.50936 6.50936 6.50936 6.50936 6.50936 6.50936 8.95037 11.3914 18.7144 21.1554 26.0374 28.4785 28.4785 26.0374 21.1554 16.2734 11.3914 11.3914 8.95037 8.95037 8.95037 8.95037 11.3914 13.8324 16.2734 21.1554 23.5964 28.4785 28.4785 28.4785 28.4785 30.9195 33.3605 35.8015 35.8015 40.6835 38.2425 30.9195 28.4785 26.0374 23.5964 23.5964 23.5964 28.4785 33.3605 35.8015 35.8015 35.8015 35.8015 35.8015 40.6835 40.6835 40.6835 43.1245 38.2425 38.2425 38.2425 38.2425 38.2425 38.2425 45.5655 50.4475 50.4475 50.4475 52.8885 52.8885 48.0065 45.5655 45.5655 45.5655 43.1245 45.5655 48.0065 50.4475 50.4475 50.4475 48.0065 50.4475 52.8885 52.8885 52.8885 52.8885 52.8885 52.8885 52.8885 48.0065 43.1245 45.5655 48.0065 48.0065 50.4475 50.4475 55.3296 55.3296 55.3296 52.8885 52.8885 52.8885 55.3296 60.2116 62.6526 65.0936 65.0936 67.5346 67.5346 67.5346 67.5346 67.5346 67.5346 67.5346 67.5346 65.0936 65.0936 65.0936 65.0936 65.0936 60.2116 57.7706 52.8885 48.0065 45.5655 43.1245 45.5655 45.5655 48.0065 48.0065 48.0065 48.0065 45.5655 43.1245 43.1245 45.5655 45.5655 40.6835 38.2425 38.2425 38.2425 38.2425 38.2425 40.6835 43.1245 50.4475 52.8885 52.8885 50.4475 50.4475 50.4475 50.4475 48.0065 45.5655 43.1245 45.5655 45.5655 43.1245 43.1245 43.1245 43.1245 40.6835 38.2425 40.6835 40.6835 45.5655 45.5655 48.0065 52.8885 55.3296 55.3296 52.8885 50.4475 50.4475 50.4475 45.5655 40.6835 40.6835 43.1245 45.5655 43.1245 43.1245 43.1245 43.1245 45.5655 50.4475 45.5655 45.5655 48.0065 45.5655 43.1245 38.2425 38.2425 35.8015 33.3605 35.8015 35.8015 33.3605 33.3605 35.8015 35.8015 35.8015 35.8015 33.3605 33.3605 33.3605 33.3605 30.9195 28.4785 26.0374 21.1554 18.7144 18.7144 18.7144 18.7144 18.7144 21.1554 18.7144 18.7144 18.7144 21.1554 23.5964 23.5964 28.4785 30.9195 33.3605 28.4785 21.1554 18.7144 16.2734 8.95037 4.06835 4.06835 11.3914 16.2734 18.7144 26.0374 35.8015 48.0065 50.4475 48.0065 45.5655 45.5655 43.1245 43.1245 45.5655 50.4475 57.7706 62.6526 67.5346 69.9756 72.4166 62.6526 57.7706 52.8885 48.0065 43.1245 33.3605 28.4785 26.0374 21.1554 18.7144 13.8324 11.3914 11.3914 11.3914 16.2734 18.7144 21.1554 26.0374 30.9195 38.2425 45.5655 45.5655 48.0065 48.0065 45.5655 40.6835 30.9195 23.5964 16.2734 13.8324 8.95037 6.50936 4.06835 0.81367 -1.62734 -6.50936 -11.3914 -13.8324 -16.2734 -21.1554 -26.0374 -28.4785 -30.9195 -35.8015 -38.2425 -43.1245 -43.1245 -40.6835 -38.2425 -38.2425 -35.8015 -33.3605 -30.9195 -28.4785 -23.5964 -21.1554 -21.1554 -23.5964 -26.0374 -33.3605 -40.6835 -48.0065 -50.4475 -48.0065 -43.1245 -38.2425 -33.3605 -28.4785 -26.0374 -26.0374 -30.9195 -30.9195 -30.9195 -30.9195 -30.9195 -33.3605 -38.2425 -43.1245 -50.4475 -57.7706 -62.6526 -67.5346 -67.5346 -72.4166 -74.8576 -77.2987 -84.6217 -99.2677 -123.678 -157.852 -204.231 -262.815 -323.841 -384.866 -441.009 -484.947 -514.239 -521.563 -516.68 -494.711 -462.978 -419.04 -377.543 -336.046 -287.226 -243.287 -204.231 -170.057 -143.206 -116.355 -89.5037 -69.9756 -55.3296 -48.0065 -43.1245 -35.8015 -30.9195 -28.4785 -26.0374 -21.1554 -13.8324 -6.50936 -4.06835 -4.06835 -6.50936 -8.95037 -8.95037 -11.3914 -13.8324 -11.3914 -8.95037 -4.06835 -4.06835 0.81367 4.06835 4.06835 0.81367 0.81367 0.81367 6.50936 8.95037 4.06835 4.06835 4.06835 4.06835 4.06835 -1.62734 -4.06835 0.81367 0.81367 4.06835 6.50936 11.3914 13.8324 16.2734 16.2734 16.2734 13.8324 11.3914 6.50936 6.50936 6.50936 6.50936 6.50936 8.95037 8.95037 8.95037 11.3914 11.3914 13.8324 13.8324 13.8324 16.2734 18.7144 21.1554 21.1554 21.1554 21.1554 26.0374 26.0374 28.4785 30.9195 33.3605 38.2425 43.1245 43.1245 43.1245 43.1245 40.6835 38.2425 35.8015 35.8015 35.8015 35.8015 38.2425 40.6835 43.1245 43.1245 43.1245 40.6835 40.6835 40.6835 40.6835 40.6835 45.5655 48.0065 48.0065 45.5655 45.5655 43.1245 43.1245 40.6835 35.8015 33.3605 33.3605 33.3605 30.9195 33.3605 38.2425 40.6835 43.1245 43.1245 45.5655 48.0065 48.0065 48.0065 45.5655 43.1245 43.1245 40.6835 40.6835 40.6835 45.5655 52.8885 55.3296 57.7706 57.7706 57.7706 55.3296 50.4475 45.5655 45.5655 43.1245 43.1245 43.1245 45.5655 48.0065 50.4475 48.0065 48.0065 43.1245 43.1245 40.6835 38.2425 40.6835 40.6835 40.6835 40.6835 38.2425 38.2425 35.8015 33.3605 30.9195 30.9195 30.9195 33.3605 35.8015 38.2425 40.6835 40.6835 38.2425 35.8015 30.9195 30.9195 28.4785 28.4785 33.3605 38.2425 38.2425 40.6835 43.1245 43.1245 35.8015 30.9195 28.4785 28.4785 28.4785 30.9195 30.9195 33.3605 35.8015 35.8015 35.8015 33.3605 35.8015 35.8015 33.3605 33.3605 33.3605 33.3605 33.3605 33.3605 33.3605 38.2425 38.2425 38.2425 38.2425 38.2425 35.8015 35.8015 33.3605 30.9195 28.4785 28.4785 28.4785 28.4785 28.4785 28.4785 28.4785 26.0374 21.1554 21.1554 26.0374 28.4785 28.4785 30.9195 33.3605 33.3605 30.9195 26.0374 21.1554 16.2734 11.3914 11.3914 11.3914 8.95037 16.2734 23.5964 23.5964 23.5964 21.1554 16.2734 11.3914 4.06835 0.81367 0.81367 6.50936 11.3914 13.8324 11.3914 8.95037 8.95037 4.06835 0.81367 -1.62734 0.81367 4.06835 13.8324 18.7144 21.1554 26.0374 30.9195 33.3605 33.3605 33.3605 33.3605 38.2425 43.1245 45.5655 50.4475 52.8885 60.2116 67.5346 72.4166 72.4166 67.5346 60.2116 55.3296 48.0065 33.3605 23.5964 18.7144 18.7144 18.7144 16.2734 16.2734 18.7144 18.7144 18.7144 18.7144 18.7144 18.7144 16.2734 21.1554 26.0374 26.0374 28.4785 33.3605 35.8015 33.3605 33.3605 30.9195 30.9195 23.5964 21.1554 16.2734 13.8324 6.50936 0.81367 0.81367 -1.62734 -6.50936 -11.3914 -13.8324 -13.8324 -16.2734 -18.7144 -18.7144 -18.7144 -21.1554 -21.1554 -21.1554 -21.1554 -23.5964 -23.5964 -21.1554 -18.7144 -16.2734 -21.1554 -23.5964 -23.5964 -26.0374 -30.9195 -35.8015 -38.2425 -35.8015 -35.8015 -35.8015 -33.3605 -30.9195 -23.5964 -21.1554 -21.1554 -21.1554 -16.2734 -16.2734 -21.1554 -28.4785 -35.8015 -38.2425 -38.2425 -38.2425 -35.8015 -35.8015 -35.8015 -40.6835 -50.4475 -62.6526 -72.4166 -82.1807 -84.6217 -87.0627 -94.3857 -111.473 -138.324 -174.939 -221.318 -279.902 -340.928 -399.512 -445.891 -482.506 -502.034 -504.475 -492.27 -470.301 -433.686 -392.189 -343.369 -296.99 -250.61 -204.231 -165.175 -131.001 -99.2677 -72.4166 -55.3296 -40.6835 -28.4785 -21.1554 -16.2734 -13.8324 -11.3914 -4.06835 -1.62734 0.81367 -1.62734 -1.62734 0.81367 0.81367 0.81367 -1.62734 0.81367 4.06835 6.50936 6.50936 6.50936 8.95037 8.95037 8.95037 11.3914 13.8324 13.8324 18.7144 23.5964 23.5964 21.1554 21.1554 21.1554 23.5964 18.7144 18.7144 21.1554 21.1554 21.1554 21.1554 21.1554 21.1554 18.7144 18.7144 21.1554 23.5964 23.5964 23.5964 26.0374 26.0374 23.5964 23.5964 23.5964 26.0374 28.4785 33.3605 33.3605 35.8015 35.8015 38.2425 38.2425 38.2425 38.2425 38.2425 40.6835 40.6835 40.6835 40.6835 43.1245 45.5655 45.5655 48.0065 52.8885 60.2116 62.6526 57.7706 55.3296 52.8885 52.8885 48.0065 45.5655 45.5655 48.0065 48.0065 50.4475 50.4475 50.4475 50.4475 50.4475 48.0065 45.5655 48.0065 48.0065 48.0065 48.0065 50.4475 55.3296 57.7706 55.3296 50.4475 52.8885 57.7706 60.2116 57.7706 57.7706 60.2116 60.2116 55.3296 55.3296 57.7706 62.6526 65.0936 69.9756 69.9756 69.9756 67.5346 65.0936 65.0936 65.0936 69.9756 72.4166 74.8576 77.2987 74.8576 69.9756 65.0936 62.6526 62.6526 65.0936 65.0936 67.5346 69.9756 69.9756 65.0936 60.2116 57.7706 60.2116 57.7706 57.7706 60.2116 65.0936 67.5346 67.5346 65.0936 65.0936 65.0936 62.6526 60.2116 55.3296 52.8885 52.8885 52.8885 52.8885 55.3296 55.3296 55.3296 55.3296 55.3296 55.3296 55.3296 57.7706 57.7706 57.7706 55.3296 52.8885 50.4475 50.4475 50.4475 50.4475 50.4475 50.4475 52.8885 52.8885 50.4475 50.4475 50.4475 45.5655 45.5655 43.1245 48.0065 48.0065 48.0065 48.0065 48.0065 43.1245 43.1245 43.1245 48.0065 52.8885 57.7706 60.2116 62.6526 62.6526 57.7706 52.8885 52.8885 50.4475 48.0065 45.5655 43.1245 43.1245 45.5655 45.5655 45.5655 45.5655 45.5655 48.0065 45.5655 45.5655 43.1245 40.6835 38.2425 38.2425 38.2425 38.2425 38.2425 35.8015 33.3605 35.8015 40.6835 40.6835 40.6835 40.6835 38.2425 35.8015 30.9195 28.4785 26.0374 26.0374 28.4785 30.9195 30.9195 23.5964 16.2734 11.3914 4.06835 6.50936 11.3914 16.2734 18.7144 26.0374 30.9195 33.3605 30.9195 28.4785 28.4785 26.0374 28.4785 26.0374 26.0374 30.9195 30.9195 33.3605 30.9195 33.3605 38.2425 45.5655 52.8885 60.2116 69.9756 72.4166 72.4166 67.5346 62.6526 57.7706 52.8885 50.4475 45.5655 45.5655 43.1245 38.2425 33.3605 26.0374 21.1554 16.2734 8.95037 6.50936 6.50936 11.3914 18.7144 26.0374 33.3605 38.2425 40.6835 43.1245 40.6835 43.1245 40.6835 38.2425 33.3605 30.9195 28.4785 18.7144 13.8324 13.8324 13.8324 8.95037 4.06835 0.81367 -1.62734 -11.3914 -21.1554 -23.5964 -23.5964 -18.7144 -18.7144 -13.8324 -8.95037 -4.06835 -8.95037 -11.3914 -16.2734 -21.1554 -26.0374 -28.4785 -30.9195 -33.3605 -30.9195 -26.0374 -23.5964 -23.5964 -26.0374 -26.0374 -28.4785 -28.4785 -26.0374 -26.0374 -23.5964 -18.7144 -16.2734 -16.2734 -18.7144 -23.5964 -23.5964 -23.5964 -26.0374 -26.0374 -26.0374 -23.5964 -21.1554 -21.1554 -23.5964 -26.0374 -30.9195 -40.6835 -48.0065 -57.7706 -67.5346 -74.8576 -77.2987 -87.0627 -99.2677 -121.237 -150.529 -187.144 -240.846 -304.313 -362.897 -416.599 -462.978 -492.27 -504.475 -497.152 -480.065 -450.773 -416.599 -375.102 -331.164 -289.667 -248.169 -206.672 -167.616 -128.56 -101.709 -77.2987 -57.7706 -43.1245 -35.8015 -28.4785 -26.0374 -21.1554 -18.7144 -18.7144 -16.2734 -13.8324 -11.3914 -11.3914 -6.50936 -1.62734 0.81367 0.81367 -1.62734 -1.62734 -1.62734 -4.06835 -4.06835 -1.62734 0.81367 0.81367 0.81367 0.81367 0.81367 0.81367 -1.62734 0.81367 4.06835 4.06835 4.06835 6.50936 6.50936 4.06835 0.81367 0.81367 -1.62734 -1.62734 0.81367 0.81367 4.06835 4.06835 4.06835 11.3914 13.8324 13.8324 13.8324 13.8324 16.2734 16.2734 18.7144 21.1554 23.5964 23.5964 26.0374 28.4785 23.5964 16.2734 11.3914 11.3914 11.3914 16.2734 18.7144 18.7144 21.1554 26.0374 26.0374 26.0374 21.1554 23.5964 28.4785 30.9195 30.9195 33.3605 33.3605 30.9195 30.9195 33.3605 33.3605 33.3605 33.3605 33.3605 33.3605 30.9195 30.9195 30.9195 33.3605 35.8015 35.8015 38.2425 38.2425 35.8015 30.9195 28.4785 28.4785 28.4785 33.3605 40.6835 45.5655 48.0065 48.0065 48.0065 48.0065 43.1245 43.1245 43.1245 45.5655 45.5655 43.1245 43.1245 40.6835 40.6835 38.2425 45.5655 55.3296 62.6526 62.6526 62.6526 60.2116 57.7706 55.3296 50.4475 50.4475 55.3296 55.3296 57.7706 55.3296 55.3296 55.3296 55.3296 55.3296 55.3296 55.3296 55.3296 50.4475 48.0065 43.1245 38.2425 35.8015 35.8015 33.3605 33.3605 38.2425 40.6835 43.1245 40.6835 38.2425 35.8015 30.9195 28.4785 28.4785 28.4785 26.0374 26.0374 30.9195 35.8015 38.2425 38.2425 38.2425 38.2425 38.2425 35.8015 33.3605 30.9195 30.9195 26.0374 21.1554 16.2734 18.7144 18.7144 16.2734 16.2734 21.1554 23.5964 23.5964 23.5964 26.0374 28.4785 28.4785 30.9195 33.3605 35.8015 35.8015 35.8015 33.3605 33.3605 30.9195 30.9195 28.4785 30.9195 30.9195 33.3605 33.3605 33.3605 33.3605 33.3605 30.9195 28.4785 26.0374 23.5964 26.0374 26.0374 26.0374 26.0374 26.0374 23.5964 18.7144 16.2734 11.3914 8.95037 6.50936 8.95037 11.3914 13.8324 13.8324 16.2734 16.2734 16.2734 16.2734 13.8324 11.3914 8.95037 13.8324 16.2734 13.8324 16.2734 18.7144 21.1554 18.7144 13.8324 13.8324 13.8324 8.95037 8.95037 11.3914 13.8324 13.8324 13.8324 11.3914 11.3914 11.3914 6.50936 6.50936 8.95037 11.3914 13.8324 13.8324 18.7144 26.0374 26.0374 26.0374 28.4785 30.9195 35.8015 38.2425 40.6835 43.1245 50.4475 55.3296 55.3296 55.3296 55.3296 52.8885 50.4475 45.5655 43.1245 40.6835 35.8015 28.4785 23.5964 18.7144 16.2734 18.7144 23.5964 26.0374 33.3605 33.3605 30.9195 30.9195 28.4785 23.5964 23.5964 26.0374 28.4785 33.3605 38.2425 40.6835 40.6835 35.8015 33.3605 26.0374 21.1554 13.8324 8.95037 6.50936 4.06835 0.81367 -1.62734 -4.06835 -6.50936 -13.8324 -21.1554 -26.0374 -30.9195 -35.8015 -35.8015 -35.8015 -33.3605 -30.9195 -28.4785 -26.0374 -26.0374 -26.0374 -28.4785 -33.3605 -35.8015 -40.6835 -43.1245 -43.1245 -43.1245 -38.2425 -33.3605 -28.4785 -21.1554 -21.1554 -18.7144 -18.7144 -21.1554 -21.1554 -23.5964 -26.0374 -26.0374 -26.0374 -28.4785 -26.0374 -21.1554 -13.8324 -11.3914 -13.8324 -16.2734 -26.0374 -38.2425 -55.3296 -67.5346 -72.4166 -77.2987 -84.6217 -89.5037 -91.9447 -101.709 -118.796 -143.206 -182.262 -231.082 -284.784 -343.369 -397.071 -445.891 -477.624 -489.829 -484.947 -470.301 -438.568 -401.953 -360.456 -314.077 -272.579 -238.405 -204.231 -172.498 -143.206 -118.796 -91.9447 -69.9756 -48.0065 -33.3605 -23.5964 -13.8324 -6.50936 -4.06835 0.81367 6.50936 8.95037 8.95037 6.50936 4.06835 4.06835 4.06835 4.06835 8.95037 8.95037 6.50936 6.50936 8.95037 66.7209 66.7209 64.2799 66.7209 64.2799 64.2799 64.2799 66.7209 71.603 78.926 78.926 78.926 76.485 71.603 61.8389 56.9569 47.1929 42.3108 34.9878 32.5468 30.1058 30.1058 25.2238 25.2238 25.2238 27.6648 25.2238 27.6648 30.1058 32.5468 37.4288 39.8698 39.8698 44.7519 42.3108 39.8698 39.8698 37.4288 32.5468 34.9878 37.4288 39.8698 39.8698 37.4288 37.4288 37.4288 34.9878 32.5468 34.9878 34.9878 39.8698 39.8698 39.8698 42.3108 37.4288 37.4288 32.5468 32.5468 30.1058 30.1058 32.5468 32.5468 34.9878 34.9878 32.5468 30.1058 25.2238 22.7828 25.2238 27.6648 27.6648 30.1058 30.1058 30.1058 27.6648 25.2238 25.2238 25.2238 25.2238 27.6648 32.5468 32.5468 30.1058 30.1058 30.1058 25.2238 22.7828 20.3417 20.3417 20.3417 9.76404 0 -19.5281 -43.9382 -82.9943 -126.933 -178.194 -239.219 -307.567 -383.239 -473.556 -580.96 -695.688 -817.738 -944.671 -1056.96 -1152.16 -1215.62 -1242.47 -1220.51 -1154.6 -1049.63 -922.702 -776.241 -624.899 -480.879 -351.505 -246.542 -158.666 -85.4353 -31.7331 9.76404 37.4288 52.0749 61.8389 64.2799 64.2799 61.8389 61.8389 64.2799 64.2799 66.7209 64.2799 61.8389 59.3979 54.5159 52.0749 52.0749 54.5159 59.3979 64.2799 64.2799 66.7209 66.7209 64.2799 64.2799 59.3979 56.9569 56.9569 59.3979 56.9569 56.9569 59.3979 59.3979 59.3979 56.9569 56.9569 54.5159 56.9569 61.8389 61.8389 66.7209 66.7209 69.1619 66.7209 64.2799 64.2799 61.8389 64.2799 66.7209 71.603 71.603 69.1619 69.1619 69.1619 66.7209 64.2799 61.8389 64.2799 66.7209 71.603 76.485 74.044 71.603 69.1619 66.7209 64.2799 59.3979 61.8389 64.2799 69.1619 71.603 74.044 76.485 74.044 71.603 66.7209 64.2799 64.2799 64.2799 64.2799 66.7209 64.2799 61.8389 56.9569 56.9569 54.5159 52.0749 49.6339 52.0749 52.0749 49.6339 47.1929 44.7519 39.8698 32.5468 30.1058 25.2238 27.6648 30.1058 30.1058 32.5468 32.5468 32.5468 27.6648 17.9007 14.6461 9.76404 7.32303 7.32303 9.76404 14.6461 14.6461 17.9007 17.9007 14.6461 9.76404 4.88202 7.32303 7.32303 12.2051 17.9007 17.9007 25.2238 25.2238 22.7828 20.3417 20.3417 20.3417 22.7828 27.6648 34.9878 39.8698 47.1929 47.1929 47.1929 47.1929 44.7519 44.7519 44.7519 47.1929 52.0749 54.5159 54.5159 52.0749 52.0749 49.6339 44.7519 44.7519 47.1929 49.6339 56.9569 56.9569 61.8389 61.8389 59.3979 56.9569 54.5159 54.5159 54.5159 56.9569 61.8389 61.8389 59.3979 56.9569 52.0749 47.1929 47.1929 49.6339 49.6339 59.3979 66.7209 69.1619 69.1619 66.7209 64.2799 59.3979 52.0749 54.5159 52.0749 56.9569 64.2799 69.1619 71.603 69.1619 69.1619 69.1619 64.2799 64.2799 64.2799 71.603 76.485 78.926 81.367 78.926 76.485 74.044 66.7209 59.3979 59.3979 64.2799 69.1619 74.044 74.044 71.603 69.1619 61.8389 56.9569 52.0749 54.5159 56.9569 64.2799 66.7209 69.1619 69.1619 61.8389 56.9569 49.6339 44.7519 42.3108 44.7519 47.1929 47.1929 49.6339 49.6339 44.7519 42.3108 34.9878 34.9878 32.5468 34.9878 32.5468 37.4288 37.4288 30.1058 27.6648 20.3417 14.6461 12.2051 9.76404 9.76404 14.6461 14.6461 22.7828 22.7828 27.6648 30.1058 30.1058 30.1058 30.1058 30.1058 39.8698 42.3108 44.7519 44.7519 44.7519 47.1929 44.7519 44.7519 47.1929 54.5159 64.2799 64.2799 66.7209 64.2799 59.3979 49.6339 39.8698 32.5468 25.2238 22.7828 20.3417 17.9007 12.2051 7.32303 4.88202 0 -2.44101 0 2.44101 9.76404 14.6461 25.2238 27.6648 30.1058 30.1058 30.1058 27.6648 25.2238 25.2238 25.2238 27.6648 32.5468 34.9878 34.9878 34.9878 32.5468 30.1058 25.2238 20.3417 22.7828 25.2238 27.6648 30.1058 30.1058 32.5468 25.2238 22.7828 22.7828 20.3417 22.7828 25.2238 27.6648 30.1058 30.1058 27.6648 22.7828 20.3417 14.6461 12.2051 14.6461 20.3417 22.7828 22.7828 22.7828 20.3417 20.3417 14.6461 12.2051 9.76404 14.6461 17.9007 20.3417 20.3417 20.3417 17.9007 14.6461 12.2051 9.76404 9.76404 12.2051 12.2051 7.32303 -2.44101 -19.5281 -43.9382 -78.1123 -122.05 -173.312 -229.455 -290.48 -363.71 -449.146 -546.786 -656.632 -776.241 -905.615 -1025.22 -1127.75 -1205.86 -1242.47 -1237.59 -1188.77 -1093.57 -971.522 -832.384 -681.042 -534.581 -397.885 -285.598 -192.84 -112.286 -51.2612 -4.88202 27.6648 49.6339 61.8389 66.7209 69.1619 69.1619 71.603 71.603 71.603 69.1619 64.2799 61.8389 54.5159 44.7519 42.3108 37.4288 37.4288 42.3108 44.7519 49.6339 52.0749 52.0749 52.0749 54.5159 54.5159 52.0749 52.0749 54.5159 56.9569 56.9569 52.0749 47.1929 44.7519 42.3108 39.8698 44.7519 49.6339 56.9569 61.8389 66.7209 66.7209 64.2799 56.9569 54.5159 52.0749 47.1929 47.1929 49.6339 56.9569 61.8389 64.2799 61.8389 64.2799 64.2799 61.8389 59.3979 56.9569 56.9569 56.9569 56.9569 56.9569 54.5159 54.5159 54.5159 52.0749 52.0749 54.5159 56.9569 54.5159 52.0749 52.0749 52.0749 54.5159 56.9569 56.9569 61.8389 61.8389 61.8389 56.9569 49.6339 39.8698 30.1058 17.9007 14.6461 14.6461 17.9007 25.2238 32.5468 44.7519 52.0749 49.6339 42.3108 37.4288 30.1058 22.7828 17.9007 17.9007 20.3417 27.6648 27.6648 25.2238 22.7828 20.3417 12.2051 4.88202 -2.44101 -2.44101 2.44101 4.88202 9.76404 9.76404 9.76404 4.88202 2.44101 -7.32303 -12.2051 -12.2051 -4.88202 2.44101 12.2051 17.9007 22.7828 20.3417 17.9007 14.6461 12.2051 12.2051 17.9007 22.7828 27.6648 32.5468 34.9878 42.3108 39.8698 37.4288 32.5468 25.2238 25.2238 22.7828 27.6648 37.4288 39.8698 42.3108 44.7519 47.1929 47.1929 42.3108 44.7519 47.1929 54.5159 56.9569 54.5159 52.0749 49.6339 52.0749 54.5159 54.5159 56.9569 59.3979 64.2799 61.8389 59.3979 56.9569 52.0749 49.6339 49.6339 52.0749 61.8389 61.8389 69.1619 74.044 78.926 78.926 71.603 64.2799 59.3979 59.3979 61.8389 66.7209 74.044 83.808 83.808 88.69 83.808 74.044 64.2799 54.5159 49.6339 52.0749 56.9569 59.3979 64.2799 74.044 83.808 78.926 74.044 78.926 83.808 86.249 86.249 81.367 74.044 74.044 69.1619 64.2799 56.9569 59.3979 69.1619 74.044 74.044 74.044 74.044 74.044 69.1619 59.3979 49.6339 44.7519 37.4288 30.1058 30.1058 42.3108 54.5159 56.9569 56.9569 52.0749 54.5159 52.0749 42.3108 39.8698 49.6339 59.3979 61.8389 56.9569 49.6339 44.7519 37.4288 32.5468 30.1058 27.6648 30.1058 34.9878 34.9878 34.9878 32.5468 34.9878 39.8698 42.3108 44.7519 52.0749 56.9569 56.9569 49.6339 42.3108 39.8698 34.9878 32.5468 34.9878 42.3108 52.0749 64.2799 74.044 78.926 78.926 76.485 66.7209 59.3979 52.0749 47.1929 42.3108 34.9878 25.2238 17.9007 12.2051 -4.88202 -17.0871 -21.9691 -9.76404 9.76404 20.3417 32.5468 47.1929 52.0749 52.0749 39.8698 34.9878 32.5468 30.1058 32.5468 32.5468 34.9878 39.8698 39.8698 39.8698 39.8698 37.4288 34.9878 37.4288 34.9878 32.5468 32.5468 32.5468 30.1058 25.2238 22.7828 14.6461 17.9007 17.9007 22.7828 30.1058 32.5468 32.5468 30.1058 30.1058 22.7828 9.76404 2.44101 -2.44101 -7.32303 -2.44101 0 9.76404 25.2238 30.1058 27.6648 25.2238 12.2051 -4.88202 -14.6461 -7.32303 12.2051 22.7828 30.1058 42.3108 52.0749 49.6339 30.1058 17.9007 17.9007 17.9007 14.6461 7.32303 0 -19.5281 -48.8202 -85.4353 -126.933 -175.753 -229.455 -290.48 -363.71 -444.264 -539.463 -644.427 -759.154 -883.646 -995.932 -1091.13 -1159.48 -1193.65 -1179.01 -1113.1 -1010.58 -888.528 -746.949 -600.488 -463.792 -346.623 -253.865 -178.194 -109.845 -58.5842 -29.2921 -4.88202 9.76404 25.2238 32.5468 34.9878 42.3108 59.3979 74.044 83.808 86.249 88.69 88.69 76.485 61.8389 49.6339 44.7519 42.3108 47.1929 54.5159 56.9569 61.8389 61.8389 59.3979 49.6339 37.4288 34.9878 37.4288 44.7519 59.3979 74.044 86.249 96.0131 96.0131 98.4541 96.0131 96.0131 93.5721 93.5721 96.0131 96.0131 91.131 88.69 86.249 86.249 98.4541 105.777 113.1 122.864 125.305 125.305 120.423 110.659 100.895 100.895 103.336 103.336 108.218 115.541 125.305 127.746 127.746 127.746 125.305 125.305 125.305 125.305 127.746 132.628 137.51 139.951 135.069 127.746 122.864 120.423 115.541 115.541 122.864 135.069 139.951 149.715 157.038 166.802 166.802 159.479 157.038 152.156 144.833 139.951 132.628 127.746 125.305 122.864 110.659 103.336 103.336 113.1 113.1 113.1 113.1 122.864 127.746 130.187 132.628 135.069 137.51 135.069 132.628 127.746 122.864 120.423 122.864 135.069 139.951 147.274 154.597 164.361 171.684 174.125 171.684 179.007 179.007 183.889 183.889 186.33 188.771 188.771 188.771 183.889 183.889 191.212 198.535 203.417 215.623 230.269 242.474 242.474 242.474 240.033 240.033 237.592 237.592 237.592 240.033 247.356 252.238 257.12 257.12 259.561 257.12 252.238 252.238 257.12 257.12 257.12 259.561 264.443 274.207 279.089 286.412 293.735 298.617 303.499 296.176 291.294 286.412 288.853 296.176 298.617 303.499 303.499 308.381 305.94 301.058 296.176 291.294 288.853 288.853 288.853 291.294 296.176 303.499 305.94 305.94 308.381 303.499 301.058 296.176 293.735 296.176 305.94 318.145 330.35 340.114 347.437 349.878 344.996 337.673 332.791 332.791 332.791 325.468 315.704 303.499 296.176 291.294 286.412 283.971 301.058 327.909 347.437 352.319 352.319 357.201 352.319 342.555 332.791 332.791 337.673 342.555 342.555 347.437 342.555 337.673 340.114 340.114 340.114 337.673 337.673 335.232 327.909 318.145 313.263 315.704 320.586 323.027 330.35 340.114 349.878 354.76 349.878 347.437 344.996 340.114 337.673 335.232 335.232 340.114 349.878 362.083 371.847 381.611 393.816 396.257 391.375 384.052 381.611 386.493 388.934 396.257 398.698 403.58 403.58 398.698 386.493 379.17 371.847 362.083 354.76 342.555 325.468 310.822 301.058 293.735 283.971 279.089 276.648 276.648 274.207 269.325 257.12 249.797 242.474 240.033 240.033 235.151 240.033 249.797 254.679 252.238 249.797 254.679 252.238 247.356 247.356 249.797 252.238 254.679 259.561 262.002 259.561 259.561 252.238 242.474 227.828 220.505 218.064 218.064 220.505 230.269 237.592 242.474 242.474 242.474 237.592 232.71 220.505 218.064 213.182 220.505 232.71 237.592 249.797 262.002 274.207 281.53 276.648 269.325 269.325 276.648 279.089 279.089 283.971 298.617 308.381 308.381 303.499 301.058 293.735 274.207 254.679 252.238 249.797 242.474 220.505 205.859 183.889 144.833 96.0131 44.7519 -12.2051 -75.6713 -153.784 -246.542 -353.946 -471.115 -590.724 -698.129 -788.446 -847.03 -871.441 -851.912 -788.446 -698.129 -583.401 -456.469 -327.095 -209.927 -109.845 -26.8511 34.9878 83.808 115.541 139.951 157.038 171.684 183.889 193.653 198.535 196.094 198.535 196.094 191.212 181.448 176.566 171.684 171.684 166.802 166.802 166.802 169.243 166.802 166.802 161.92 157.038 154.597 149.715 142.392 139.951 144.833 147.274 144.833 142.392 139.951 130.187 110.659 96.0131 91.131 98.4541 103.336 105.777 113.1 125.305 135.069 132.628 127.746 120.423 117.982 113.1 100.895 83.808 66.7209 61.8389 59.3979 54.5159 52.0749 61.8389 71.603 69.1619 61.8389 64.2799 66.7209 64.2799 49.6339 39.8698 34.9878 30.1058 17.9007 2.44101 -7.32303 -12.2051 -19.5281 -24.4101 -26.8511 -24.4101 -26.8511 -31.7331 -34.1741 -41.4972 -43.9382 -41.4972 -51.2612 -61.0252 -65.9073 -65.9073 -51.2612 -51.2612 -53.7022 -46.3792 -48.8202 -48.8202 -53.7022 -53.7022 -51.2612 -58.5842 -61.0252 -68.3483 -85.4353 -100.081 -114.727 -112.286 -109.845 -100.081 -90.3174 -82.9943 -75.6713 -68.3483 -61.0252 -61.0252 -58.5842 -53.7022 -46.3792 -46.3792 -53.7022 -48.8202 -43.9382 -36.6152 -34.1741 -36.6152 -34.1741 -31.7331 -31.7331 -36.6152 -34.1741 -34.1741 -29.2921 -19.5281 -17.0871 -12.2051 -9.76404 -4.88202 0 -2.44101 -7.32303 -7.32303 -9.76404 -9.76404 -12.2051 -9.76404 -9.76404 -7.32303 -4.88202 -4.88202 -9.76404 -14.6461 -19.5281 -21.9691 -24.4101 -29.2921 -29.2921 -29.2921 -29.2921 -34.1741 -39.0562 -43.9382 -53.7022 -61.0252 -73.2303 -78.1123 -75.6713 -70.7893 -58.5842 -48.8202 -41.4972 -36.6152 -43.9382 -56.1432 -75.6713 -92.7584 -92.7584 -85.4353 -80.5533 -73.2303 -63.4663 -48.8202 -46.3792 -53.7022 -63.4663 -70.7893 -82.9943 -90.3174 -102.522 -104.963 -107.404 -109.845 -109.845 -109.845 -109.845 -114.727 -117.168 -122.05 -119.609 -119.609 -119.609 -124.492 -126.933 -129.374 -136.697 -148.902 -163.548 -178.194 -192.84 -209.927 -217.25 -212.368 -202.604 -185.517 -178.194 -170.871 -161.107 -158.666 -158.666 -165.989 -168.43 -170.871 -165.989 -168.43 -178.194 -185.517 -187.958 -190.399 -190.399 -197.722 -202.604 -205.045 -212.368 -212.368 -212.368 -209.927 -209.927 -209.927 -214.809 -224.573 -227.014 -236.778 -246.542 -246.542 -246.542 -244.101 -241.66 -244.101 -239.219 -241.66 -246.542 -248.983 -256.306 -258.747 -256.306 -256.306 -253.865 -258.747 -266.07 -270.952 -280.716 -278.275 -270.952 -258.747 -248.983 -236.778 -217.25 -207.486 -207.486 -212.368 -209.927 -200.163 -197.722 -197.722 -200.163 -200.163 -207.486 -219.691 -236.778 -251.424 -263.629 -275.834 -283.157 -288.039 -285.598 -285.598 -285.598 -283.157 -283.157 -275.834 -278.275 -280.716 -280.716 -280.716 -278.275 -278.275 -278.275 -275.834 -275.834 -275.834 -280.716 -283.157 -288.039 -283.157 -283.157 -283.157 -280.716 -278.275 -278.275 -278.275 -283.157 -285.598 -290.48 -292.921 -297.803 -297.803 -297.803 -297.803 -297.803 -297.803 -292.921 -292.921 -295.362 -295.362 -295.362 -297.803 -300.244 -305.126 -307.567 -310.008 -317.331 -319.772 -322.213 -322.213 -322.213 -324.654 -327.095 -327.095 -327.095 -329.536 -334.418 -336.859 -339.3 -341.741 -349.064 -349.064 -349.064 -351.505 -353.946 -344.182 -334.418 -336.859 -344.182 -351.505 -366.151 -390.562 -432.059 -473.556 -519.935 -571.196 -637.104 -712.775 -803.092 -903.174 -1022.78 -1154.6 -1279.09 -1393.82 -1493.9 -1562.25 -1598.86 -1589.1 -1530.51 -1432.87 -1313.26 -1176.57 -1034.99 -888.528 -759.154 -649.309 -563.873 -490.643 -434.5 -388.121 -361.269 -344.182 -327.095 -319.772 -317.331 -319.772 -322.213 -327.095 -331.977 -334.418 -334.418 -336.859 -336.859 -336.859 -334.418 -331.977 -331.977 -331.977 -327.095 -324.654 -329.536 -329.536 -331.977 -329.536 -324.654 -319.772 -310.008 -307.567 -307.567 -305.126 -302.685 -307.567 -312.449 -317.331 -317.331 -319.772 -322.213 -317.331 -307.567 -300.244 -297.803 -292.921 -285.598 -285.598 -288.039 -292.921 -290.48 -283.157 -280.716 -273.393 -273.393 -270.952 -266.07 -268.511 -266.07 -263.629 -258.747 -256.306 -251.424 -241.66 -234.337 -231.896 -227.014 -222.132 -217.25 -209.927 -205.045 -200.163 -197.722 -192.84 -192.84 -197.722 -197.722 -195.281 -185.517 -168.43 -158.666 -146.461 -136.697 -126.933 -122.05 -126.933 -131.815 -134.256 -131.815 -131.815 -129.374 -124.492 -112.286 -102.522 -97.6404 -95.1994 -95.1994 -92.7584 -95.1994 -97.6404 -95.1994 -95.1994 -90.3174 -85.4353 -82.9943 -78.1123 -78.1123 -75.6713 -70.7893 -65.9073 -63.4663 -61.0252 -61.0252 -56.1432 -48.8202 -41.4972 -36.6152 -29.2921 -24.4101 -19.5281 -17.0871 -14.6461 -14.6461 -9.76404 -4.88202 0 2.44101 9.76404 20.3417 30.1058 34.9878 39.8698 44.7519 54.5159 61.8389 64.2799 69.1619 74.044 76.485 76.485 74.044 76.485 74.044 74.044 81.367 86.249 93.5721 98.4541 103.336 103.336 98.4541 93.5721 91.131 91.131 93.5721 100.895 105.777 115.541 120.423 122.864 125.305 122.864 122.864 125.305 132.628 135.069 144.833 152.156 154.597 157.038 154.597 147.274 147.274 147.274 152.156 157.038 164.361 174.125 179.007 181.448 176.566 174.125 169.243 166.802 169.243 171.684 176.566 179.007 181.448 183.889 176.566 169.243 161.92 159.479 161.92 166.802 176.566 183.889 186.33 183.889 174.125 166.802 157.038 152.156 149.715 157.038 161.92 166.802 169.243 166.802 161.92 157.038 152.156 152.156 159.479 166.802 171.684 174.125 176.566 176.566 169.243 157.038 152.156 149.715 154.597 154.597 157.038 159.479 161.92 159.479 157.038 152.156 149.715 149.715 154.597 154.597 159.479 161.92 164.361 161.92 157.038 147.274 137.51 137.51 139.951 142.392 147.274 152.156 161.92 164.361 161.92 164.361 159.479 157.038 159.479 159.479 161.92 161.92 154.597 147.274 142.392 142.392 149.715 157.038 161.92 164.361 169.243 164.361 152.156 130.187 113.1 98.4541 86.249 74.044 66.7209 66.7209 74.044 81.367 88.69 96.0131 100.895 98.4541 96.0131 93.5721 88.69 83.808 86.249 93.5721 96.0131 98.4541 100.895 100.895 105.777 105.777 100.895 98.4541 96.0131 93.5721 83.808 71.603 61.8389 66.7209 71.603 76.485 83.808 98.4541 105.777 103.336 98.4541 93.5721 86.249 81.367 78.926 83.808 86.249 91.131 96.0131 100.895 103.336 103.336 103.336 103.336 100.895 100.895 103.336 105.777 105.777 105.777 110.659 117.982 117.982 120.423 122.864 125.305 125.305 122.864 122.864 122.864 120.423 120.423 120.423 122.864 120.423 110.659 105.777 103.336 91.131 69.1619 39.8698 4.88202 -36.6152 -90.3174 -163.548 -241.66 -327.095 -432.059 -549.227 -676.16 -798.21 -910.497 -1008.14 -1078.93 -1110.66 -1103.34 -1056.96 -976.404 -869 -734.744 -588.283 -436.941 -295.362 -175.753 -80.5533 2.44101 64.2799 105.777 132.628 157.038 169.243 176.566 179.007 181.448 181.448 179.007 176.566 171.684 166.802 164.361 161.92 159.479 159.479 161.92 161.92 161.92 164.361 161.92 164.361 159.479 161.92 164.361 161.92 161.92 161.92 157.038 157.038 157.038 154.597 154.597 157.038 161.92 166.802 166.802 169.243 176.566 179.007 176.566 169.243 166.802 159.479 149.715 144.833 144.833 142.392 144.833 147.274 154.597 159.479 161.92 166.802 171.684 179.007 181.448 183.889 186.33 186.33 186.33 186.33 188.771 188.771 191.212 193.653 193.653 200.976 198.535 200.976 200.976 203.417 203.417 200.976 203.417 205.859 208.3 208.3 210.741 213.182 210.741 205.859 205.859 200.976 200.976 198.535 191.212 188.771 191.212 188.771 188.771 183.889 183.889 181.448 179.007 171.684 166.802 171.684 169.243 164.361 161.92 161.92 166.802 157.038 149.715 147.274 147.274 147.274 147.274 144.833 144.833 149.715 152.156 147.274 144.833 142.392 139.951 135.069 130.187 130.187 132.628 137.51 139.951 139.951 142.392 137.51 137.51 135.069 127.746 125.305 127.746 130.187 132.628 132.628 132.628 132.628 130.187 127.746 130.187 127.746 130.187 137.51 142.392 137.51 135.069 130.187 127.746 122.864 115.541 113.1 113.1 122.864 125.305 125.305 127.746 130.187 130.187 122.864 115.541 115.541 115.541 113.1 110.659 108.218 108.218 105.777 105.777 98.4541 96.0131 93.5721 96.0131 100.895 103.336 103.336 108.218 105.777 103.336 98.4541 91.131 91.131 93.5721 96.0131 96.0131 96.0131 96.0131 93.5721 93.5721 88.69 83.808 81.367 83.808 86.249 88.69 86.249 83.808 83.808 81.367 78.926 74.044 71.603 71.603 74.044 76.485 76.485 74.044 69.1619 66.7209 61.8389 59.3979 59.3979 61.8389 66.7209 66.7209 66.7209 64.2799 61.8389 54.5159 47.1929 42.3108 37.4288 39.8698 42.3108 47.1929 47.1929 44.7519 42.3108 42.3108 37.4288 30.1058 27.6648 27.6648 25.2238 22.7828 20.3417 17.9007 12.2051 7.32303 0 -7.32303 -12.2051 -14.6461 -12.2051 -12.2051 -14.6461 -14.6461 -14.6461 -12.2051 -14.6461 -12.2051 -7.32303 -4.88202 0 4.88202 7.32303 4.88202 2.44101 -4.88202 -7.32303 -7.32303 -4.88202 0 4.88202 9.76404 9.76404 4.88202 0 -12.2051 -21.9691 -29.2921 -34.1741 -36.6152 -36.6152 -34.1741 -36.6152 -39.0562 -41.4972 -41.4972 -41.4972 -41.4972 -39.0562 -34.1741 -29.2921 -26.8511 -24.4101 -24.4101 -26.8511 -29.2921 -31.7331 -31.7331 -31.7331 -31.7331 -26.8511 -19.5281 -19.5281 -19.5281 -21.9691 -21.9691 -29.2921 -31.7331 -31.7331 -31.7331 -29.2921 -26.8511 -24.4101 -26.8511 -26.8511 -26.8511 -29.2921 -34.1741 -36.6152 -34.1741 -29.2921 -26.8511 -26.8511 -26.8511 -26.8511 -26.8511 -29.2921 -31.7331 -31.7331 -31.7331 -29.2921 -29.2921 -31.7331 -34.1741 -34.1741 -34.1741 -36.6152 -36.6152 -36.6152 -31.7331 -31.7331 -29.2921 -36.6152 -39.0562 -39.0562 -39.0562 -39.0562 -39.0562 -36.6152 -31.7331 -34.1741 -36.6152 -48.8202 -65.9073 -92.7584 -124.492 -161.107 -212.368 -270.952 -341.741 -417.413 -505.289 -610.253 -724.98 -844.589 -969.081 -1083.81 -1181.45 -1252.24 -1281.53 -1271.77 -1205.86 -1100.9 -973.963 -822.62 -668.837 -519.935 -385.68 -275.834 -187.958 -114.727 -56.1432 -14.6461 12.2051 32.5468 44.7519 44.7519 47.1929 44.7519 44.7519 39.8698 39.8698 39.8698 37.4288 34.9878 34.9878 34.9878 37.4288 39.8698 39.8698 47.1929 52.0749 56.9569 54.5159 54.5159 54.5159 52.0749 52.0749 47.1929 49.6339 54.5159 56.9569 56.9569 56.9569 54.5159 54.5159 49.6339 49.6339 44.7519 47.1929 49.6339 52.0749 52.0749 54.5159 54.5159 54.5159 49.6339 47.1929 47.1929 49.6339 54.5159 54.5159 54.5159 52.0749 52.0749 52.0749 49.6339 49.6339 52.0749 54.5159 59.3979 61.8389 61.8389 61.8389 59.3979 56.9569 56.9569 56.9569 54.5159 56.9569 59.3979 61.8389 61.8389 59.3979 59.3979 59.3979 54.5159 54.5159 54.5159 56.9569 61.8389 61.8389 61.8389 59.3979 56.9569 52.0749 47.1929 44.7519 44.7519 42.3108 42.3108 42.3108 37.4288 34.9878 30.1058 25.2238 20.3417 14.6461 12.2051 12.2051 9.76404 7.32303 7.32303 2.44101 2.44101 0 -4.88202 -12.2051 -12.2051 -7.32303 -2.44101 -2.44101 2.44101 4.88202 2.44101 0 -4.88202 -9.76404 -12.2051 -14.6461 -12.2051 -4.88202 -2.44101 2.44101 9.76404 14.6461 17.9007 22.7828 25.2238 30.1058 34.9878 37.4288 42.3108 44.7519 47.1929 49.6339 49.6339 47.1929 49.6339 52.0749 56.9569 59.3979 61.8389 59.3979 59.3979 61.8389 59.3979 56.9569 54.5159 52.0749 52.0749 56.9569 61.8389 61.8389 66.7209 66.7209 64.2799 64.2799 59.3979 59.3979 61.8389 69.1619 69.1619 76.485 78.926 81.367 78.926 71.603 64.2799 59.3979 59.3979 59.3979 59.3979 66.7209 69.1619 71.603 69.1619 66.7209 64.2799 64.2799 64.2799 66.7209 69.1619 74.044 74.044 76.485 74.044 71.603 69.1619 69.1619 71.603 74.044 78.926 81.367 83.808 83.808 81.367 76.485 71.603 69.1619 69.1619 71.603 74.044 76.485 78.926 78.926 76.485 69.1619 66.7209 64.2799 64.2799 64.2799 66.7209 69.1619 69.1619 69.1619 66.7209 61.8389 64.2799 61.8389 64.2799 64.2799 64.2799 66.7209 64.2799 64.2799 61.8389 54.5159 49.6339 47.1929 49.6339 49.6339 52.0749 52.0749 52.0749 52.0749 49.6339 47.1929 42.3108 34.9878 32.5468 34.9878 37.4288 37.4288 42.3108 44.7519 47.1929 44.7519 42.3108 39.8698 42.3108 44.7519 47.1929 52.0749 59.3979 61.8389 59.3979 56.9569 56.9569 56.9569 59.3979 59.3979 64.2799 69.1619 71.603 71.603 69.1619 64.2799 56.9569 54.5159 49.6339 44.7519 37.4288 34.9878 32.5468 27.6648 22.7828 20.3417 20.3417 20.3417 22.7828 25.2238 30.1058 34.9878 39.8698 42.3108 42.3108 42.3108 42.3108 42.3108 44.7519 39.8698 39.8698 42.3108 42.3108 42.3108 42.3108 42.3108 42.3108 39.8698 39.8698 37.4288 34.9878 37.4288 34.9878 37.4288 34.9878 34.9878 34.9878 32.5468 32.5468 30.1058 32.5468 34.9878 39.8698 39.8698 37.4288 34.9878 32.5468 27.6648 20.3417 17.9007 20.3417 22.7828 25.2238 27.6648 30.1058 32.5468 27.6648 25.2238 22.7828 17.9007 14.6461 14.6461 14.6461 17.9007 17.9007 17.9007 17.9007 14.6461 14.6461 12.2051 9.76404 7.32303 2.44101 -9.76404 -24.4101 -41.4972 -75.6713 -114.727 -163.548 -219.691 -283.157 -358.828 -446.705 -541.904 -646.868 -766.477 -883.646 -998.373 -1100.9 -1174.13 -1210.74 -1208.3 -1149.72 -1054.52 -932.466 -790.887 -639.545 -495.525 -363.71 -263.629 -173.312 -100.081 -43.9382 -2.44101 27.6648 42.3108 54.5159 59.3979 56.9569 56.9569 52.0749 54.5159 54.5159 54.5159 49.6339 49.6339 54.5159 52.0749 52.0749 54.5159 59.3979 61.8389 64.2799 66.7209 66.7209 61.8389 61.8389 59.3979 56.9569 54.5159 54.5159 56.9569 59.3979 64.2799 66.7209 66.7209 69.1619 69.1619 64.2799 61.8389 61.8389 61.8389 61.8389 64.2799 64.2799 66.7209 69.1619 64.2799 59.3979 56.9569 59.3979 59.3979 59.3979 61.8389 64.2799 64.2799 64.2799 59.3979 59.3979 59.3979 56.9569 59.3979 64.2799 64.2799 64.2799 66.7209 66.7209 64.2799 61.8389 56.9569 56.9569 56.9569 56.9569 56.9569 56.9569 56.9569 54.5159 54.5159 54.5159 59.3979 59.3979 59.3979 59.3979 56.9569 52.0749 47.1929 42.3108 42.3108 39.8698 34.9878 37.4288 39.8698 39.8698 37.4288 34.9878 32.5468 25.2238 20.3417 17.9007 14.6461 9.76404 7.32303 7.32303 7.32303 4.88202 2.44101 0 -2.44101 -4.88202 -9.76404 -7.32303 -2.44101 4.88202 9.76404 9.76404 14.6461 17.9007 9.76404 4.88202 0 0 4.88202 4.88202 12.2051 14.6461 17.9007 22.7828 20.3417 20.3417 22.7828 25.2238 30.1058 37.4288 44.7519 52.0749 54.5159 56.9569 54.5159 54.5159 54.5159 52.0749 56.9569 56.9569 61.8389 61.8389 61.8389 61.8389 59.3979 59.3979 59.3979 61.8389 69.1619 71.603 74.044 74.044 71.603 69.1619 64.2799 56.9569 52.0749 52.0749 59.3979 61.8389 66.7209 71.603 74.044 81.367 78.926 78.926 76.485 76.485 78.926 81.367 83.808 83.808 86.249 88.69 83.808 81.367 78.926 78.926 83.808 88.69 88.69 88.69 91.131 93.5721 86.249 83.808 81.367 83.808 91.131 93.5721 93.5721 96.0131 96.0131 96.0131 88.69 83.808 78.926 78.926 81.367 86.249 86.249 88.69 91.131 91.131 86.249 78.926 71.603 71.603 71.603 71.603 76.485 81.367 83.808 86.249 83.808 78.926 74.044 69.1619 71.603 69.1619 69.1619 66.7209 66.7209 64.2799 59.3979 54.5159 52.0749 49.6339 49.6339 54.5159 56.9569 56.9569 54.5159 56.9569 49.6339 39.8698 37.4288 34.9878 37.4288 39.8698 42.3108 47.1929 52.0749 56.9569 56.9569 56.9569 54.5159 54.5159 52.0749 49.6339 54.5159 59.3979 64.2799 69.1619 66.7209 66.7209 69.1619 69.1619 74.044 78.926 81.367 86.249 88.69 88.69 83.808 76.485 64.2799 59.3979 49.6339 42.3108 39.8698 37.4288 37.4288 34.9878 34.9878 34.9878 37.4288 34.9878 37.4288 37.4288 37.4288 39.8698 42.3108 44.7519 47.1929 49.6339 49.6339 49.6339 54.5159 54.5159 49.6339 42.3108 42.3108 39.8698 39.8698 34.9878 32.5468 30.1058 30.1058 27.6648 25.2238 27.6648 27.6648 30.1058 27.6648 22.7828 20.3417 14.6461 14.6461 20.3417 20.3417 25.2238 30.1058 34.9878 32.5468 27.6648 22.7828 17.9007 12.2051 9.76404 7.32303 7.32303 9.76404 14.6461 17.9007 14.6461 12.2051 9.76404 12.2051 14.6461 14.6461 17.9007 17.9007 17.9007 14.6461 12.2051 7.32303 4.88202 4.88202 2.44101 0 -7.32303 -17.0871 -31.7331 -48.8202 -80.5533 -114.727 -156.225 -200.163 -253.865 -314.89 -385.68 -468.674 -561.432 -668.837 -781.123 -895.851 -1000.81 -1083.81 -1130.19 -1142.39 -1100.9 -1017.9 -905.615 -776.241 -634.663 -497.966 -375.916 -270.952 -192.84 -124.492 -70.7893 -29.2921 2.44101 22.7828 37.4288 44.7519 49.6339 52.0749 54.5159 54.5159 54.5159 56.9569 59.3979 59.3979 54.5159 52.0749 52.0749 52.0749 52.0749 49.6339 49.6339 52.0749 52.0749 52.0749 54.5159 54.5159 54.5159 56.9569 56.9569 56.9569 59.3979 61.8389 61.8389 61.8389 61.8389 59.3979 56.9569 56.9569 59.3979 59.3979 56.9569 56.9569 61.8389 59.3979 59.3979 59.3979 59.3979 56.9569 56.9569 61.8389 64.2799 64.2799 66.7209 69.1619 66.7209 64.2799 64.2799 64.2799 66.7209 64.2799 66.7209 66.7209 66.7209 66.7209 61.8389 59.3979 59.3979 59.3979 59.3979 59.3979 61.8389 61.8389 64.2799 64.2799 56.9569 56.9569 56.9569 54.5159 54.5159 52.0749 52.0749 54.5159 54.5159 54.5159 49.6339 47.1929 44.7519 42.3108 39.8698 37.4288 34.9878 34.9878 32.5468 27.6648 22.7828 20.3417 17.9007 17.9007 14.6461 14.6461 14.6461 14.6461 14.6461 12.2051 7.32303 4.88202 2.44101 2.44101 2.44101 0 -2.44101 -2.44101 4.88202 7.32303 7.32303 9.76404 12.2051 17.9007 17.9007 17.9007 14.6461 14.6461 20.3417 27.6648 30.1058 34.9878 34.9878 42.3108 44.7519 39.8698 42.3108 42.3108 47.1929 49.6339 52.0749 56.9569 61.8389 66.7209 69.1619 69.1619 66.7209 66.7209 64.2799 61.8389 61.8389 64.2799 64.2799 69.1619 69.1619 69.1619 66.7209 66.7209 69.1619 71.603 71.603 71.603 71.603 74.044 74.044 74.044 69.1619 71.603 71.603 74.044 76.485 78.926 81.367 81.367 83.808 81.367 81.367 76.485 78.926 76.485 76.485 76.485 78.926 83.808 83.808 81.367 81.367 81.367 83.808 83.808 78.926 81.367 83.808 86.249 83.808 83.808 83.808 83.808 83.808 83.808 81.367 78.926 78.926 81.367 78.926 78.926 74.044 71.603 74.044 74.044 74.044 74.044 76.485 78.926 78.926 74.044 71.603 69.1619 71.603 71.603 69.1619 69.1619 66.7209 69.1619 66.7209 66.7209 64.2799 61.8389 64.2799 64.2799 61.8389 61.8389 59.3979 61.8389 59.3979 56.9569 56.9569 56.9569 61.8389 61.8389 61.8389 59.3979 61.8389 56.9569 54.5159 49.6339 44.7519 44.7519 44.7519 42.3108 47.1929 49.6339 49.6339 49.6339 49.6339 52.0749 54.5159 54.5159 56.9569 64.2799 66.7209 71.603 71.603 74.044 74.044 71.603 71.603 71.603 76.485 78.926 81.367 83.808 86.249 83.808 76.485 69.1619 59.3979 52.0749 47.1929 42.3108 42.3108 42.3108 39.8698 39.8698 37.4288 34.9878 32.5468 32.5468 34.9878 42.3108 44.7519 49.6339 52.0749 54.5159 56.9569 54.5159 52.0749 52.0749 52.0749 49.6339 49.6339 52.0749 52.0749 54.5159 52.0749 47.1929 44.7519 39.8698 39.8698 39.8698 42.3108 44.7519 47.1929 49.6339 49.6339 47.1929 44.7519 42.3108 42.3108 37.4288 37.4288 39.8698 39.8698 37.4288 34.9878 34.9878 32.5468 30.1058 30.1058 32.5468 34.9878 39.8698 42.3108 42.3108 39.8698 37.4288 34.9878 30.1058 32.5468 30.1058 30.1058 32.5468 34.9878 34.9878 34.9878 32.5468 27.6648 25.2238 25.2238 22.7828 20.3417 12.2051 4.88202 -14.6461 -39.0562 -73.2303 -114.727 -163.548 -212.368 -278.275 -351.505 -444.264 -546.786 -666.396 -793.328 -922.702 -1039.87 -1135.07 -1193.65 -1213.18 -1186.33 -1110.66 -1003.26 -873.882 -734.744 -588.283 -449.146 -331.977 -234.337 -151.343 -82.9943 -34.1741 4.88202 32.5468 47.1929 56.9569 56.9569 59.3979 59.3979 61.8389 61.8389 66.7209 66.7209 66.7209 64.2799 61.8389 56.9569 52.0749 49.6339 49.6339 54.5159 59.3979 61.8389 66.7209 69.1619 69.1619 64.2799 61.8389 61.8389 59.3979 61.8389 61.8389 64.2799 69.1619 69.1619 66.7209 61.8389 61.8389 59.3979 61.8389 66.7209 69.1619 74.044 78.926 78.926 76.485 74.044 74.044 71.603 74.044 74.044 78.926 81.367 86.249 83.808 83.808 78.926 76.485 74.044 71.603 69.1619 71.603 76.485 81.367 83.808 83.808 83.808 81.367 78.926 78.926 81.367 83.808 83.808 86.249 86.249 83.808 78.926 74.044 71.603 71.603 74.044 78.926 78.926 78.926 78.926 74.044 69.1619 61.8389 59.3979 59.3979 56.9569 59.3979 61.8389 64.2799 59.3979 54.5159 44.7519 39.8698 34.9878 32.5468 32.5468 32.5468 32.5468 34.9878 34.9878 30.1058 25.2238 22.7828 20.3417 17.9007 20.3417 20.3417 22.7828 25.2238 27.6648 25.2238 25.2238 22.7828 22.7828 22.7828 22.7828 25.2238 25.2238 32.5468 32.5468 32.5468 30.1058 30.1058 27.6648 30.1058 32.5468 37.4288 42.3108 49.6339 52.0749 54.5159 54.5159 56.9569 52.0749 52.0749 52.0749 54.5159 54.5159 54.5159 59.3979 59.3979 56.9569 56.9569 54.5159 54.5159 54.5159 56.9569 59.3979 59.3979 61.8389 64.2799 61.8389 61.8389 61.8389 59.3979 56.9569 61.8389 64.2799 64.2799 64.2799 64.2799 64.2799 64.2799 61.8389 64.2799 64.2799 66.7209 66.7209 69.1619 71.603 74.044 74.044 74.044 71.603 69.1619 66.7209 69.1619 64.2799 66.7209 71.603 74.044 71.603 74.044 76.485 76.485 78.926 76.485 78.926 81.367 83.808 86.249 83.808 83.808 81.367 81.367 78.926 78.926 78.926 81.367 86.249 83.808 81.367 81.367 81.367 76.485 74.044 74.044 74.044 76.485 76.485 78.926 76.485 76.485 74.044 69.1619 66.7209 64.2799 61.8389 61.8389 61.8389 59.3979 54.5159 54.5159 54.5159 52.0749 52.0749 49.6339 49.6339 47.1929 49.6339 49.6339 47.1929 44.7519 39.8698 39.8698 37.4288 37.4288 34.9878 34.9878 34.9878 34.9878 34.9878 39.8698 39.8698 42.3108 39.8698 42.3108 44.7519 49.6339 54.5159 56.9569 61.8389 61.8389 64.2799 61.8389 61.8389 64.2799 64.2799 71.603 71.603 76.485 74.044 74.044 64.2799 61.8389 54.5159 47.1929 42.3108 34.9878 30.1058 27.6648 25.2238 27.6648 27.6648 25.2238 27.6648 27.6648 30.1058 32.5468 39.8698 44.7519 47.1929 52.0749 54.5159 52.0749 49.6339 44.7519 44.7519 47.1929 44.7519 42.3108 42.3108 44.7519 42.3108 42.3108 39.8698 37.4288 34.9878 34.9878 34.9878 34.9878 34.9878 37.4288 37.4288 37.4288 34.9878 30.1058 30.1058 27.6648 27.6648 30.1058 32.5468 32.5468 32.5468 32.5468 30.1058 30.1058 27.6648 30.1058 30.1058 32.5468 34.9878 37.4288 34.9878 32.5468 32.5468 30.1058 25.2238 25.2238 30.1058 30.1058 32.5468 32.5468 32.5468 32.5468 30.1058 30.1058 30.1058 30.1058 27.6648 22.7828 14.6461 -2.44101 -24.4101 -53.7022 -87.8764 -131.815 -183.076 -244.101 -314.89 -397.885 -495.525 -607.811 -732.303 -861.677 -983.727 -1091.13 -1174.13 -1222.95 -1232.71 -1191.21 -1105.78 -988.609 -854.354 -703.011 -554.109 -414.972 -292.921 -197.722 -114.727 -51.2612 -2.44101 32.5468 54.5159 69.1619 76.485 78.926 76.485 76.485 76.485 76.485 74.044 71.603 71.603 69.1619 66.7209 66.7209 66.7209 69.1619 74.044 76.485 78.926 78.926 76.485 78.926 74.044 71.603 66.7209 66.7209 69.1619 71.603 74.044 76.485 76.485 76.485 76.485 76.485 76.485 81.367 81.367 81.367 83.808 83.808 83.808 81.367 81.367 81.367 81.367 83.808 83.808 86.249 88.69 88.69 88.69 86.249 83.808 81.367 78.926 78.926 81.367 86.249 86.249 88.69 88.69 88.69 88.69 86.249 86.249 88.69 88.69 91.131 96.0131 96.0131 96.0131 93.5721 88.69 88.69 88.69 88.69 91.131 93.5721 96.0131 93.5721 91.131 88.69 83.808 78.926 74.044 71.603 69.1619 69.1619 69.1619 69.1619 66.7209 61.8389 56.9569 54.5159 54.5159 52.0749 52.0749 49.6339 49.6339 47.1929 44.7519 39.8698 34.9878 30.1058 27.6648 27.6648 25.2238 27.6648 27.6648 25.2238 25.2238 25.2238 25.2238 22.7828 17.9007 17.9007 17.9007 17.9007 14.6461 12.2051 17.9007 17.9007 17.9007 20.3417 17.9007 20.3417 22.7828 22.7828 25.2238 27.6648 27.6648 32.5468 34.9878 34.9878 34.9878 37.4288 37.4288 39.8698 37.4288 42.3108 42.3108 49.6339 49.6339 47.1929 47.1929 47.1929 49.6339 49.6339 47.1929 49.6339 49.6339 49.6339 49.6339 49.6339 47.1929 49.6339 49.6339 52.0749 52.0749 49.6339 49.6339 52.0749 52.0749 54.5159 54.5159 54.5159 56.9569 59.3979 59.3979 59.3979 56.9569 59.3979 56.9569 59.3979 56.9569 56.9569 56.9569 59.3979 59.3979 61.8389 61.8389 64.2799 66.7209 64.2799 64.2799 64.2799 64.2799 66.7209 66.7209 66.7209 66.7209 66.7209 66.7209 71.603 66.7209 64.2799 64.2799 66.7209 64.2799 64.2799 64.2799 66.7209 66.7209 66.7209 64.2799 64.2799 64.2799 61.8389 59.3979 61.8389 56.9569 59.3979 56.9569 54.5159 52.0749 49.6339 52.0749 52.0749 52.0749 49.6339 49.6339 47.1929 47.1929 47.1929 44.7519 39.8698 39.8698 39.8698 37.4288 37.4288 34.9878 37.4288 37.4288 37.4288 34.9878 27.6648 25.2238 25.2238 20.3417 14.6461 12.2051 17.9007 17.9007 22.7828 27.6648 32.5468 32.5468 34.9878 34.9878 34.9878 34.9878 37.4288 39.8698 42.3108 42.3108 44.7519 47.1929 47.1929 47.1929 47.1929 47.1929 54.5159 59.3979 61.8389 61.8389 59.3979 54.5159 49.6339 39.8698 27.6648 20.3417 14.6461 9.76404 9.76404 7.32303 7.32303 9.76404 9.76404 9.76404 9.76404 12.2051 17.9007 17.9007 22.7828 27.6648 30.1058 32.5468 30.1058 27.6648 25.2238 25.2238 22.7828 30.1058 32.5468 34.9878 34.9878 37.4288 34.9878 32.5468 27.6648 22.7828 20.3417 20.3417 25.2238 27.6648 30.1058 30.1058 30.1058 27.6648 22.7828 17.9007 17.9007 20.3417 22.7828 25.2238 25.2238 25.2238 27.6648 20.3417 17.9007 9.76404 9.76404 12.2051 14.6461 14.6461 17.9007 17.9007 20.3417 17.9007 14.6461 12.2051 14.6461 14.6461 17.9007 22.7828 20.3417 17.9007 14.6461 12.2051 7.32303 2.44101 2.44101 0 -4.88202 -17.0871 -36.6152 -63.4663 -97.6404 -141.579 -195.281 -258.747 -327.095 -407.649 -500.407 -607.811 -722.539 -842.148 -964.199 -1071.6 -1164.36 -1222.95 -1244.92 -1220.51 -1144.83 -1034.99 -905.615 -754.272 -602.929 -456.469 -334.418 -236.778 -148.902 -80.5533 -29.2921 9.76404 37.4288 54.5159 64.2799 66.7209 66.7209 61.8389 61.8389 61.8389 64.2799 64.2799 64.2799 61.8389 61.8389 59.3979 56.9569 54.5159 54.5159 56.9569 56.9569 61.8389 64.2799 64.2799 66.7209 64.2799 59.3979 56.9569 59.3979 59.3979 61.8389 66.7209 66.7209 66.7209 66.7209 69.1619 69.1619 64.2799 66.7209 71.603 76.485 76.485 76.485 76.485 76.485 71.603 66.7209 64.2799 69.1619 71.603 74.044 76.485 76.485 76.485 74.044 69.1619 66.7209 64.2799 69.1619 71.603 78.926 83.808 86.249 88.69 88.69 83.808 76.485 74.044 76.485 81.367 86.249 86.249 86.249 86.249 83.808 78.926 74.044 71.603 71.603 74.044 74.044 74.044 74.044 74.044 71.603 66.7209 61.8389 56.9569 56.9569 56.9569 56.9569 56.9569 54.5159 52.0749 49.6339 42.3108 34.9878 30.1058 27.6648 27.6648 27.6648 27.6648 22.7828 25.2238 22.7828 22.7828 17.9007 17.9007 20.3417 20.3417 17.9007 17.9007 20.3417 22.7828 20.3417 22.7828 17.9007 17.9007 20.3417 17.9007 22.7828 22.7828 27.6648 30.1058 34.9878 37.4288 37.4288 34.9878 37.4288 39.8698 39.8698 44.7519 47.1929 52.0749 56.9569 59.3979 59.3979 59.3979 59.3979 59.3979 59.3979 61.8389 64.2799 69.1619 71.603 71.603 69.1619 69.1619 69.1619 69.1619 71.603 69.1619 74.044 78.926 78.926 78.926 78.926 76.485 76.485 76.485 76.485 76.485 76.485 78.926 78.926 81.367 78.926 78.926 78.926 78.926 78.926 81.367 81.367 81.367 83.808 86.249 83.808 81.367 81.367 81.367 86.249 83.808 88.69 93.5721 96.0131 96.0131 93.5721 91.131 93.5721 